1636406526.00
64.000000
-0.00
-0.00
-0.00
-0.00
-0.00
-0.00
-0.00
-0.00
-0.00
-0.00
0.00
0.01
0.01
-0.00
-0.03
-0.05
-0.05
0.00
0.13
0.36
0.66
1.01
1.37
1.72
2.06
2.40
2.79
3.24
3.80
4.42
5.06
5.67
6.21
6.68
7.14
7.67
8.30
9.15
10.12
11.10
11.94
12.57
13.02
13.45
14.12
15.20
16.97
19.24
21.75
24.17
26.30
28.16
30.08
32.51
35.82
40.43
46.01
51.99
57.72
62.75
67.10
71.23
75.93
81.83
89.59
98.74
108.38
117.45
125.14
131.35
136.69
142.70
148.38
156.29
167.13
180.83
195.80
208.67
214.78
209.49
189.80
155.43
109.33
55.56
-1.78
-60.12
-118.67
-177.70
-237.35
-296.77
-354.29
-407.62
-455.46
-497.27
-533.06
-562.73
-585.68
-600.92
-607.17
-603.13
-587.13
-557.47
-512.42
-451.16
-374.78
-286.92
-193.42
-100.91
-15.16
60.22
123.77
175.61
216.39
246.69
267.08
278.54
282.72
281.76
277.73
271.96
264.86
256.14
245.24
231.92
216.54
200.02
183.52
168.11
154.37
142.28
131.29
120.61
109.63
98.18
86.65
75.73
66.08
57.97
51.19
45.22
39.48
33.65
27.74
22.02
16.81
12.41
8.81
5.87
3.39
1.17
-0.89
-2.82
-4.56
-6.06
-7.23
-8.08
-8.64
-8.95
-9.07
-8.99
-8.75
-8.39
-7.98
-7.63
-7.38
-7.19
-6.99
-6.73
-6.40
-6.06
-5.76
-5.53
-5.37
-5.24
-5.09
-4.85
-4.42
-3.71
-2.72
-1.62
-0.78
-0.64
-1.48
-3.29
-5.68
-8.06
-9.75
-10.34
-9.69
-8.02
-5.76
-3.40
-1.35
0.17
1.07
1.47
1.50
1.29
0.95
0.53
0.08
-0.32
-0.57
-0.61
-0.46
-0.19
0.06
0.18
0.13
-0.03
-0.19
-0.22
-0.07
0.23
0.56
0.78
0.80
0.65
0.47
0.39
0.54
0.92
1.49
2.17
2.90
3.62
4.25
4.71
4.91
4.85
4.61
4.34
4.13
3.99
3.84
3.53
2.97
2.15
1.17
0.10
-0.96
-1.97
-2.93
-3.78
-4.46
-4.89
-5.07
-5.06
-4.99
-4.97
-5.04
-5.16
-5.19
-5.05
-4.74
-4.33
-3.95
-3.66
-3.50
-3.40
-3.29
-3.13
-2.91
-2.64
-2.31
-1.92
-1.50
-1.09
-0.73
-0.48
-0.35
-0.32
-0.33
-0.35
-0.38
-0.45
-0.55
-0.67
-0.80
-0.89
-0.90
-0.84
-0.73
-0.62
-0.54
-0.50
-0.46
-0.40
-0.33
-0.27
-0.27
-0.33
-0.45
-0.57
-0.67
-0.75
-0.83
-0.98
-1.21
-1.51
-1.83
-2.11
-2.30
-2.37
-2.31
-2.07
-1.60
-0.83
0.19
1.33
2.35
3.01
3.19
2.90
2.30
1.62
1.05
0.71
0.58
0.60
0.67
0.70
0.67
0.56
0.40
0.24
0.09
-0.03
-0.11
-0.20
-0.27
-0.34
-0.37
-0.35
-0.27
-0.20
-0.19
-0.32
-0.60
-0.99
-1.43
-1.83
-2.13
-2.31
-2.37
-2.32
-2.13
-1.79
-1.30
-0.73
-0.21
0.12
0.19
0.02
-0.28
-0.56
-0.73
-0.78
-0.78
-0.83
-1.00
-1.26
-1.50
-1.59
-1.49
-1.26
-1.04
-0.98
-1.16
-1.57
-2.07
-2.48
-2.70
-2.68
-2.46
-2.14
-1.81
-1.52
-1.27
-1.01
-0.73
-0.42
-0.10
0.19
0.47
0.78
1.16
1.63
2.12
2.55
2.85
3.03
3.15
3.29
3.46
3.59
3.58
3.35
2.98
2.61
2.39
2.38
2.51
2.65
2.71
2.66
2.58
2.56
2.62
2.71
2.72
2.60
2.35
2.04
1.75
1.51
1.25
0.93
0.52
0.08
-0.29
-0.51
-0.57
-0.54
-0.54
-0.66
-0.95
-1.37
-1.87
-2.36
-2.76
-3.01
-3.06
-2.88
-2.46
-1.83
-1.07
-0.27
0.44
1.00
1.37
1.56
1.66
1.71
1.74
1.72
1.59
1.33
0.99
0.71
0.62
0.77
1.10
1.42
1.52
1.29
0.78
0.15
-0.38
-0.66
-0.68
-0.54
-0.35
-0.20
-0.09
0.02
0.13
0.20
0.16
-0.03
-0.35
-0.73
-1.07
-1.28
-1.35
-1.33
-1.27
-1.23
-1.24
-1.28
-1.32
-1.30
-1.14
-0.79
-0.25
0.37
0.94
1.37
1.62
1.71
1.70
1.61
1.44
1.18
0.89
0.67
0.60
0.74
1.02
1.33
1.55
1.62
1.55
1.40
1.19
0.94
0.67
0.41
0.19
0.02
-0.13
-0.31
-0.53
-0.75
-0.90
-0.92
-0.82
-0.70
-0.66
-0.77
-1.03
-1.37
-1.71
-2.00
-2.21
-2.34
-2.33
-2.14
-1.76
-1.19
-0.54
0.08
0.54
0.76
0.75
0.57
0.30
0.04
-0.16
-0.31
-0.42
-0.56
-0.75
-0.97
-1.16
-1.24
-1.16
-0.95
-0.73
-0.65
-0.80
-1.17
-1.64
-2.03
-2.26
-2.35
-2.45
-2.69
-3.11
-3.62
-4.09
-4.41
-4.60
-4.77
-5.00
-5.26
-5.42
-5.28
-4.72
-3.75
-2.55
-1.35
-0.30
0.56
1.34
2.12
2.97
3.82
4.54
5.00
5.12
4.93
4.57
4.17
3.86
3.67
3.58
3.51
3.41
3.26
3.10
2.98
2.95
2.98
3.00
2.87
2.52
1.94
1.20
0.48
-0.08
-0.35
-0.34
-0.12
0.16
0.36
0.35
0.11
-0.32
-0.84
-1.31
-1.58
-1.58
-1.32
-0.88
-0.39
0.06
0.41
0.68
0.91
1.10
1.27
1.38
1.44
1.42
1.34
1.18
0.95
0.68
0.44
0.27
0.23
0.27
0.34
0.35
0.26
0.12
-0.02
-0.07
-0.03
0.09
0.23
0.35
0.42
0.46
0.46
0.39
0.22
-0.10
-0.57
-1.15
-1.74
-2.23
-2.56
-2.71
-2.68
-2.50
-2.20
-1.76
-1.21
-0.57
0.06
0.60
0.98
1.20
1.27
1.24
1.12
0.95
0.77
0.64
0.61
0.70
0.84
0.95
0.96
0.88
0.77
0.72
0.78
0.91
1.00
0.98
0.83
0.60
0.36
0.14
-0.05
-0.26
-0.47
-0.66
-0.78
-0.81
-0.81
-0.83
-0.95
-1.14
-1.30
-1.36
-1.27
-1.05
-0.74
-0.39
0.02
0.49
0.99
1.41
1.62
1.56
1.21
0.71
0.20
-0.17
-0.30
-0.21
0.04
0.36
0.61
0.73
0.68
0.51
0.32
0.18
0.12
0.11
0.09
0.03
-0.02
-0.01
0.09
0.20
0.20
-0.02
-0.48
-1.06
-1.60
-1.94
-2.04
-2.01
-2.00
-2.11
-2.34
-2.63
-2.89
-3.07
-3.17
-3.22
-3.24
-3.19
-3.02
-2.74
-2.43
-2.20
-2.16
-2.31
-2.56
-2.77
-2.84
-2.72
-2.46
-2.12
-1.74
-1.28
-0.65
0.18
1.19
2.21
3.07
3.60
3.75
3.59
3.25
2.86
2.50
2.17
1.82
1.38
0.85
0.25
-0.42
-1.15
-1.95
-2.83
-3.76
-4.68
-5.50
-6.17
-6.69
-7.05
-7.22
-7.16
-6.80
-6.11
-5.10
-3.85
-2.47
-1.06
0.33
1.66
2.94
4.13
5.19
6.05
6.64
6.97
7.06
6.99
6.86
6.72
6.65
6.66
6.76
6.96
7.23
7.46
7.54
7.37
6.87
6.10
5.19
4.34
3.68
3.26
3.02
2.84
2.59
2.18
1.55
0.66
-0.44
-1.64
-2.75
-3.53
-3.77
-3.39
-2.49
-1.31
-0.18
0.59
0.81
0.46
-0.34
-1.35
-2.30
-3.01
-3.35
-3.35
-3.12
-2.78
-2.44
-2.15
-1.95
-1.84
-1.87
-2.07
-2.42
-2.85
-3.20
-3.33
-3.13
-2.63
-1.94
-1.20
-0.56
-0.06
0.33
0.67
1.00
1.33
1.58
1.71
1.68
1.52
1.25
0.92
0.59
0.31
0.18
0.27
0.65
1.26
2.00
2.70
3.25
3.63
3.90
4.19
4.55
4.91
5.11
4.93
4.23
3.03
1.52
-0.01
-1.29
-2.15
-2.59
-2.70
-2.63
-2.50
-2.34
-2.14
-1.86
-1.47
-0.96
-0.36
0.26
0.80
1.13
1.12
0.68
-0.14
-1.19
-2.24
-3.05
-3.45
-3.39
-2.93
-2.22
-1.38
-0.53
0.29
1.01
1.59
1.97
2.08
1.94
1.60
1.19
0.84
0.60
0.48
0.41
0.35
0.27
0.23
0.32
0.54
0.84
1.10
1.20
1.12
0.89
0.65
0.50
0.45
0.48
0.48
0.42
0.30
0.20
0.17
0.24
0.34
0.33
0.10
-0.37
-0.99
-1.55
-1.84
-1.73
-1.23
-0.53
0.18
0.71
1.05
1.26
1.44
1.65
1.80
1.76
1.47
0.98
0.49
0.23
0.30
0.63
1.00
1.19
1.09
0.84
0.65
0.71
1.05
1.51
1.84
1.87
1.59
1.18
0.83
0.68
0.70
0.73
0.65
0.40
0.04
-0.33
-0.65
-0.93
-1.23
-1.58
-1.93
-2.17
-2.19
-1.94
-1.46
-0.86
-0.24
0.33
0.82
1.21
1.48
1.57
1.45
1.16
0.79
0.45
0.24
0.15
0.10
-0.01
-0.30
-0.77
-1.34
-1.86
-2.19
-2.26
-2.08
-1.73
-1.32
-0.96
-0.72
-0.64
-0.70
-0.88
-1.16
-1.49
-1.83
-2.13
-2.31
-2.31
-2.09
-1.67
-1.15
-0.65
-0.30
-0.16
-0.15
-0.15
-0.01
0.33
0.82
1.33
1.72
1.89
1.83
1.59
1.25
0.89
0.56
0.34
0.28
0.42
0.75
1.18
1.62
1.90
1.95
1.72
1.27
0.73
0.25
-0.04
-0.06
0.14
0.47
0.77
0.90
0.79
0.50
0.12
-0.23
-0.51
-0.73
-0.91
-1.06
-1.16
-1.17
-1.06
-0.85
-0.61
-0.42
-0.29
-0.19
-0.07
0.13
0.43
0.75
1.00
1.10
1.03
0.81
0.50
0.17
-0.11
-0.29
-0.33
-0.19
0.12
0.53
0.88
1.02
0.82
0.32
-0.36
-0.97
-1.35
-1.42
-1.27
-1.08
-0.99
-1.04
-1.16
-1.23
-1.15
-0.90
-0.54
-0.17
0.10
0.22
0.20
0.06
-0.12
-0.28
-0.38
-0.39
-0.32
-0.16
0.05
0.28
0.46
0.56
0.54
0.38
0.13
-0.12
-0.30
-0.35
-0.27
-0.11
0.05
0.18
0.26
0.29
0.31
0.28
0.19
0.01
-0.24
-0.51
-0.71
-0.79
-0.75
-0.69
-0.72
-0.89
-1.18
-1.47
-1.60
-1.51
-1.23
-0.89
-0.63
-0.49
-0.44
-0.39
-0.32
-0.22
-0.18
-0.24
-0.40
-0.58
-0.71
-0.79
-0.86
-1.02
-1.34
-1.81
-2.34
-2.85
-3.24
-3.48
-3.54
-3.47
-3.28
-3.00
-2.64
-2.20
-1.69
-1.15
-0.66
-0.28
-0.06
0.05
0.18
0.47
1.01
1.75
2.51
3.09
3.34
3.28
3.04
2.83
2.77
2.86
3.02
3.12
3.09
2.93
2.72
2.55
2.43
2.35
2.25
2.11
1.98
1.91
1.90
1.88
1.69
1.20
0.40
-0.57
-1.46
-2.04
-2.17
-1.94
-1.52
-1.13
-0.89
-0.82
-0.84
-0.86
-0.82
-0.74
-0.67
-0.68
-0.82
-1.13
-1.56
-2.05
-2.52
-2.92
-3.23
-3.49
-3.72
-3.93
-4.08
-4.12
-4.04
-3.90
-3.78
-3.76
-3.91
-4.20
-4.55
-4.90
-5.18
-5.36
-5.43
-5.43
-5.36
-5.28
-5.18
-5.07
-4.89
-4.58
-4.06
-3.29
-2.24
-0.89
0.73
2.60
4.63
6.68
8.57
10.19
11.46
12.43
13.16
13.78
14.32
14.78
15.07
15.07
14.63
13.68
12.21
10.30
8.17
6.12
4.43
3.32
2.86
2.91
3.21
3.42
3.27
2.66
1.69
0.59
-0.37
-0.99
-1.24
-1.24
-1.17
-1.17
-1.36
-1.74
-2.33
-3.09
-3.99
-4.95
-5.85
-6.51
-6.82
-6.76
-6.41
-5.96
-5.60
-5.47
-5.62
-5.93
-6.28
-6.51
-6.57
-6.49
-6.34
-6.19
-6.06
-5.88
-5.59
-5.12
-4.50
-3.80
-3.10
-2.44
-1.80
-1.13
-0.40
0.37
1.09
1.66
1.96
1.91
1.52
0.90
0.22
-0.26
-0.33
0.11
1.04
2.28
3.54
4.57
5.17
5.36
5.25
5.08
5.08
5.41
6.08
6.96
7.80
8.36
8.45
8.04
7.28
6.42
5.77
5.59
5.93
6.60
7.15
7.01
5.70
3.05
-0.69
-4.94
-8.91
-11.96
-13.70
-14.15
-13.54
-12.22
-10.54
-8.78
-7.17
-5.86
-4.92
-4.33
-3.93
-3.56
-3.06
-2.36
-1.50
-0.60
0.21
0.79
1.03
0.87
0.35
-0.40
-1.15
-1.62
-1.63
-1.14
-0.30
0.60
1.20
1.28
0.81
-0.01
-0.84
-1.34
-1.35
-0.93
-0.33
0.16
0.36
0.25
0.00
-0.20
-0.23
-0.15
-0.05
-0.03
-0.10
-0.19
-0.19
-0.06
0.18
0.48
0.78
1.06
1.34
1.60
1.82
1.94
1.95
1.86
1.72
1.56
1.39
1.19
0.94
0.65
0.37
0.17
0.11
0.20
0.39
0.58
0.73
0.79
0.78
0.70
0.53
0.27
-0.09
-0.51
-0.87
-1.09
-1.10
-0.95
-0.76
-0.68
-0.81
-1.14
-1.55
-1.88
-1.99
-1.84
-1.48
-1.03
-0.59
-0.21
0.11
0.37
0.54
0.56
0.41
0.10
-0.26
-0.49
-0.49
-0.25
0.13
0.48
0.69
0.76
0.77
0.82
0.91
0.99
0.94
0.73
0.41
0.08
-0.15
-0.21
-0.13
0.02
0.15
0.19
0.13
-0.04
-0.27
-0.52
-0.72
-0.83
-0.84
-0.78
-0.71
-0.63
-0.51
-0.30
0.01
0.37
0.71
0.93
0.97
0.87
0.69
0.55
0.53
0.63
0.80
0.96
1.01
0.94
0.77
0.56
0.40
0.29
0.21
0.10
-0.07
-0.28
-0.45
-0.50
-0.41
-0.25
-0.14
-0.14
-0.27
-0.46
-0.63
-0.75
-0.86
-0.99
-1.17
-1.32
-1.38
-1.31
-1.15
-1.00
-0.92
-0.93
-0.91
-0.74
-0.36
0.18
0.72
1.08
1.15
0.95
0.56
0.12
-0.24
-0.41
-0.36
-0.08
0.34
0.79
1.11
1.23
1.12
0.83
0.48
0.19
0.04
0.01
0.03
0.01
-0.08
-0.25
-0.43
-0.55
-0.56
-0.47
-0.32
-0.21
-0.18
-0.26
-0.43
-0.63
-0.82
-0.95
-0.97
-0.85
-0.57
-0.20
0.14
0.34
0.33
0.15
-0.08
-0.24
-0.28
-0.24
-0.23
-0.34
-0.55
-0.75
-0.79
-0.58
-0.15
0.35
0.74
0.89
0.79
0.56
0.34
0.25
0.33
0.53
0.76
0.95
1.07
1.16
1.20
1.20
1.08
0.80
0.38
-0.11
-0.56
-0.86
-0.96
-0.92
-0.80
-0.69
-0.63
-0.63
-0.62
-0.56
-0.42
-0.21
0.01
0.18
0.25
0.20
0.09
-0.01
-0.03
0.03
0.12
0.17
0.16
0.13
0.18
0.38
0.73
1.14
1.47
1.60
1.50
1.16
0.67
0.12
-0.41
-0.83
-1.06
-1.04
-0.79
-0.36
0.10
0.45
0.59
0.48
0.18
-0.24
-0.67
-1.02
-1.23
-1.28
-1.18
-0.97
-0.67
-0.33
0.03
0.36
0.63
0.80
0.81
0.68
0.43
0.16
-0.02
-0.04
0.13
0.44
0.79
1.09
1.29
1.38
1.36
1.26
1.08
0.82
0.52
0.22
0.00
-0.07
0.02
0.25
0.53
0.76
0.83
0.72
0.43
0.04
-0.38
-0.73
-0.96
-1.04
-0.99
-0.84
-0.63
-0.45
-0.35
-0.38
-0.52
-0.69
-0.75
-0.63
-0.28
0.23
0.77
1.21
1.45
1.49
1.35
1.11
0.83
0.54
0.28
0.08
-0.01
0.06
0.31
0.68
1.10
1.45
1.62
1.55
1.24
0.78
0.31
-0.06
-0.26
-0.31
-0.28
-0.24
-0.21
-0.16
-0.06
0.08
0.22
0.31
0.32
0.29
0.29
0.37
0.49
0.57
0.49
0.20
-0.24
-0.74
-1.20
-1.54
-1.73
-1.76
-1.59
-1.20
-0.59
0.12
0.76
1.14
1.17
0.94
0.64
0.48
0.55
0.77
0.95
0.92
0.65
0.27
0.00
-0.03
0.17
0.43
0.57
0.50
0.29
0.12
0.13
0.38
0.74
1.04
1.15
1.03
0.79
0.56
0.43
0.42
0.46
0.44
0.28
-0.02
-0.41
-0.79
-1.04
-1.15
-1.13
-1.06
-1.02
-1.04
-1.06
-1.00
-0.80
-0.46
-0.06
0.29
0.54
0.66
0.71
0.73
0.68
0.50
0.18
-0.25
-0.63
-0.81
-0.71
-0.39
0.00
0.30
0.43
0.39
0.24
0.05
-0.12
-0.24
-0.27
-0.17
0.07
0.38
0.66
0.82
0.79
0.56
0.20
-0.21
-0.62
-0.93
-1.10
-1.09
-0.93
-0.72
-0.58
-0.60
-0.82
-1.13
-1.40
-1.53
-1.43
-1.12
-0.64
-0.07
0.50
0.99
1.35
1.57
1.65
1.64
1.56
1.42
1.20
0.90
0.58
0.31
0.17
0.18
0.29
0.40
0.46
0.46
0.46
0.51
0.64
0.79
0.89
0.87
0.72
0.46
0.17
-0.09
-0.28
-0.39
-0.46
-0.51
-0.61
-0.73
-0.82
-0.82
-0.71
-0.51
-0.34
-0.34
-0.57
-0.98
-1.43
-1.72
-1.71
-1.36
-0.77
-0.10
0.47
0.85
1.00
1.02
1.02
1.06
1.12
1.08
0.83
0.35
-0.25
-0.79
-1.10
-1.14
-1.00
-0.82
-0.73
-0.71
-0.67
-0.50
-0.18
0.20
0.48
0.58
0.48
0.29
0.13
0.07
0.14
0.26
0.38
0.42
0.38
0.27
0.12
-0.06
-0.29
-0.58
-0.94
-1.33
-1.67
-1.85
-1.81
-1.54
-1.13
-0.67
-0.30
-0.08
-0.00
-0.03
-0.10
-0.17
-0.22
-0.28
-0.35
-0.43
-0.54
-0.71
-0.97
-1.36
-1.85
-2.33
-2.69
-2.81
-2.68
-2.40
-2.14
-2.04
-2.16
-2.41
-2.66
-2.78
-2.75
-2.61
-2.42
-2.21
-1.91
-1.46
-0.81
0.00
0.86
1.64
2.28
2.75
3.09
3.30
3.39
3.39
3.30
3.16
3.00
2.84
2.67
2.52
2.39
2.28
2.21
2.12
1.98
1.77
1.54
1.37
1.35
1.50
1.72
1.88
1.82
1.50
1.02
0.58
0.38
0.47
0.75
1.03
1.13
0.99
0.67
0.31
0.03
-0.13
-0.18
-0.18
-0.15
-0.08
0.06
0.21
0.25
0.07
-0.41
-1.10
-1.81
-2.30
-2.43
-2.16
-1.65
-1.09
-0.67
-0.46
-0.39
-0.34
-0.19
0.06
0.32
0.51
0.59
0.60
0.64
0.76
0.95
1.11
1.13
0.99
0.73
0.51
0.49
0.78
1.43
2.34
3.32
4.12
4.53
4.43
3.84
2.99
2.16
1.65
1.62
2.05
2.78
3.60
4.37
5.12
6.03
7.35
9.22
11.60
14.27
16.85
19.00
20.41
20.87
20.20
18.26
15.00
10.58
5.38
-0.07
-5.19
-9.55
-12.89
-15.10
-16.09
-15.77
-14.12
-11.38
-8.02
-4.72
-2.06
-0.32
0.61
1.13
1.66
2.38
3.21
3.89
4.21
4.18
4.06
4.13
4.57
5.30
6.02
6.43
6.36
5.82
4.95
3.90
2.77
1.55
0.23
-1.16
-2.54
-3.78
-4.78
-5.44
-5.72
-5.65
-5.35
-5.02
-4.87
-5.06
-5.63
-6.45
-7.29
-7.94
-8.30
-8.41
-8.43
-8.49
-8.64
-8.85
-9.06
-9.16
-9.12
-8.92
-8.57
-8.08
-7.51
-6.91
-6.35
-5.88
-5.54
-5.31
-5.13
-4.98
-4.87
-4.83
-4.91
-5.15
-5.54
-6.00
-6.44
-6.81
-7.07
-7.25
-7.40
-7.52
-7.55
-7.42
-7.09
-6.58
-6.03
-5.57
-5.30
-5.22
-5.25
-5.29
-5.29
-5.23
-5.12
-4.87
-4.33
-3.34
-1.83
0.10
2.16
4.06
5.52
6.42
6.76
6.60
6.02
5.09
3.88
2.53
1.15
-0.08
-1.06
-1.68
-1.90
-1.71
-1.11
-0.15
1.04
2.30
3.43
4.27
4.76
4.99
5.08
5.18
5.33
5.50
5.61
5.60
5.47
5.34
5.30
5.40
5.57
5.68
5.58
5.19
4.58
3.89
3.31
2.97
2.88
2.96
3.03
2.97
2.71
2.32
1.90
1.57
1.35
1.22
1.05
0.76
0.32
-0.26
-0.94
-1.65
-2.34
-2.95
-3.40
-3.62
-3.63
-3.49
-3.34
-3.31
-3.45
-3.71
-3.98
-4.13
-4.09
-3.87
-3.53
-3.16
-2.86
-2.71
-2.76
-3.00
-3.33
-3.59
-3.63
-3.35
-2.76
-1.99
-1.17
-0.43
0.21
0.75
1.22
1.61
1.88
2.01
2.01
1.93
1.83
1.71
1.53
1.24
0.82
0.34
-0.04
-0.16
0.11
0.74
1.58
2.36
2.85
2.89
2.54
1.94
1.32
0.84
0.51
0.17
-0.40
-1.40
-2.84
-4.57
-6.25
-7.53
-8.20
-8.24
-7.85
-7.31
-6.88
-6.70
-6.79
-7.03
-7.29
-7.40
-7.18
-6.50
-5.23
-3.35
-0.94
1.77
4.45
6.73
8.33
9.07
9.00
8.30
7.27
6.20
5.30
4.57
3.84
2.86
1.48
-0.25
-2.03
-3.38
-3.90
-3.38
-1.95
0.01
2.01
3.63
4.71
5.28
5.50
5.50
5.35
5.00
4.44
3.69
2.87
2.18
1.77
1.75
2.06
2.58
3.12
3.49
3.61
3.47
3.12
2.64
2.14
1.70
1.41
1.31
1.35
1.42
1.34
0.98
0.33
-0.46
-1.18
-1.63
-1.78
-1.77
-1.78
-1.95
-2.25
-2.57
-2.79
-2.91
-3.02
-3.21
-3.46
-3.65
-3.63
-3.31
-2.77
-2.18
-1.72
-1.46
-1.34
-1.24
-1.05
-0.75
-0.38
-0.02
0.27
0.46
0.54
0.56
0.56
0.63
0.79
0.99
1.08
0.93
0.44
-0.31
-1.16
-1.91
-2.46
-2.78
-2.88
-2.75
-2.35
-1.60
-0.50
0.88
2.43
4.05
5.73
7.52
9.41
11.33
13.12
14.61
15.72
16.45
16.86
17.02
16.95
16.67
16.22
15.71
15.26
14.92
14.55
13.89
12.60
10.48
7.61
4.33
1.11
-1.62
-3.64
-4.99
-5.87
-6.53
-7.12
-7.66
-8.10
-8.35
-8.38
-8.20
-7.88
-7.48
-7.04
-6.60
-6.16
-5.71
-5.25
-4.81
-4.44
-4.23
-4.25
-4.48
-4.84
-5.14
-5.28
-5.21
-5.03
-4.91
-4.94
-5.12
-5.27
-5.22
-4.85
-4.23
-3.56
-3.03
-2.76
-2.70
-2.73
-2.76
-2.78
-2.85
-3.03
-3.27
-3.46
-3.47
-3.24
-2.85
-2.43
-2.11
-1.90
-1.75
-1.53
-1.19
-0.78
-0.39
-0.14
-0.08
-0.16
-0.29
-0.42
-0.55
-0.70
-0.93
-1.21
-1.48
-1.66
-1.70
-1.62
-1.50
-1.42
-1.44
-1.51
-1.58
-1.58
-1.52
-1.44
-1.39
-1.41
-1.45
-1.46
-1.41
-1.26
-1.07
-0.89
-0.78
-0.75
-0.80
-0.94
-1.17
-1.51
-1.89
-2.19
-2.28
-2.06
-1.52
-0.75
0.01
0.49
0.49
0.04
-0.60
-1.10
-1.23
-0.91
-0.24
0.49
0.88
0.70
0.04
-0.75
-1.27
-1.26
-0.67
0.44
1.78
2.86
3.24
2.81
1.84
0.89
0.62
1.71
4.83
10.12
16.93
23.87
29.20
31.23
28.75
21.52
9.70
-4.23
-16.15
-22.59
-22.81
-18.54
-12.33
-6.08
-0.52
4.33
8.69
12.27
14.29
14.03
11.52
7.80
4.12
1.64
0.93
1.90
3.79
5.49
6.16
5.57
4.19
2.83
2.26
2.77
4.21
5.94
7.21
7.46
6.56
4.80
2.64
0.60
-1.21
-2.94
-5.01
-7.96
-12.22
-18.07
-25.65
-34.90
-43.82
-49.81
-50.26
-43.74
-30.80
-13.80
3.63
17.68
25.62
26.84
22.71
15.91
9.13
4.05
0.84
-1.03
-2.03
-2.22
-1.30
0.83
3.78
6.74
8.79
9.34
8.41
6.60
4.78
3.71
3.77
4.72
5.90
6.59
6.33
5.15
3.47
1.91
1.01
0.98
1.61
2.48
3.12
3.26
2.92
2.34
1.78
1.44
1.32
1.28
1.15
0.85
0.40
-0.07
-0.43
-0.64
-0.75
-0.85
-1.05
-1.33
-1.65
-1.94
-2.18
-2.41
-2.73
-3.21
-3.83
-4.49
-5.06
-5.45
-5.67
-5.82
-6.05
-6.45
-7.01
-7.62
-8.10
-8.25
-8.01
-7.40
-6.60
-5.83
-5.28
-5.02
-5.00
-5.01
-4.86
-4.44
-3.78
-3.02
-2.30
-1.71
-1.23
-0.77
-0.23
0.40
1.04
1.54
1.77
1.71
1.45
1.16
0.98
0.94
1.00
1.03
0.95
0.79
0.65
0.65
0.84
1.16
1.43
1.51
1.33
0.95
0.50
0.09
-0.24
-0.50
-0.73
-0.91
-0.99
-0.93
-0.72
-0.48
-0.34
-0.44
-0.84
-1.45
-2.06
-2.43
-2.39
-1.92
-1.18
-0.38
0.28
0.71
0.94
1.11
1.30
1.57
1.85
2.03
1.99
1.72
1.22
0.59
-0.04
-0.54
-0.76
-0.62
-0.18
0.43
0.99
1.35
1.44
1.34
1.18
1.09
1.06
1.03
0.85
0.44
-0.18
-0.90
-1.55
-1.99
-2.12
-1.98
-1.68
-1.42
-1.39
-1.67
-2.18
-2.72
-3.09
-3.18
-3.09
-3.06
-3.38
-4.19
-5.39
-6.61
-7.31
-6.97
-5.24
-2.08
2.19
6.86
10.90
13.14
12.53
8.59
1.58
-7.31
-16.22
-23.12
-26.38
-25.39
-20.63
-13.46
-5.52
1.86
7.99
12.75
16.24
18.42
19.01
17.60
14.05
8.72
2.50
-3.45
-8.18
-11.19
-12.53
-12.63
-11.98
-10.90
-9.43
-7.52
-5.16
-2.51
0.06
2.13
3.43
3.95
4.01
4.06
4.50
5.53
7.09
8.93
10.74
12.31
13.52
14.40
15.03
15.50
15.83
16.00
15.93
15.62
15.15
14.69
14.41
14.32
14.24
13.79
12.57
10.44
7.61
4.57
1.87
-0.14
-1.47
-2.40
-3.30
-4.41
-5.64
-6.68
-7.17
-6.80
-5.48
-3.27
-0.39
2.83
6.02
8.80
10.87
12.18
12.94
13.64
14.79
16.72
19.32
22.04
24.11
24.85
23.94
21.54
18.19
14.53
11.13
8.35
6.31
4.93
3.96
3.04
1.80
0.00
-2.31
-4.81
-6.94
-8.20
-8.27
-7.21
-5.27
-2.82
-0.11
2.68
5.43
7.90
9.81
10.80
10.71
9.62
7.87
5.92
4.16
2.72
1.43
-0.07
-2.11
-4.82
-7.96
-10.98
-13.11
-13.61
-11.99
-8.17
-2.51
4.26
11.24
17.57
22.61
26.13
28.16
29.04
29.13
28.76
28.15
27.37
26.41
25.17
23.58
21.53
19.02
16.11
13.00
9.89
7.01
4.45
2.16
0.03
-2.08
-4.24
-6.43
-8.59
-10.63
-12.51
-14.18
-15.56
-16.56
-17.08
-17.10
-16.70
-16.04
-15.32
-14.67
-14.17
-13.84
-13.66
-13.69
-14.00
-14.65
-15.67
-16.99
-18.49
-19.97
-21.22
-22.00
-22.12
-21.45
-20.02
-18.02
-15.79
-13.70
-12.02
-10.82
-9.94
-9.10
-8.04
-6.66
-5.09
-3.56
-2.29
-1.36
-0.71
-0.18
0.38
1.01
1.67
2.26
2.67
2.85
2.82
2.65
2.41
2.18
2.00
1.85
1.66
1.31
0.70
-0.22
-1.43
-2.82
-4.24
-5.51
-6.49
-7.17
-7.65
-8.21
-9.16
-10.72
-12.86
-15.21
-17.16
-18.12
-17.73
-16.01
-13.29
-9.99
-6.50
-3.02
0.22
2.95
4.82
5.55
5.17
4.00
2.51
0.95
-0.87
-3.61
-7.97
-14.23
-21.95
-29.96
-36.75
-41.03
-42.09
-39.95
-35.18
-28.76
-21.74
-15.12
-9.62
-5.59
-2.94
-1.23
0.19
1.92
4.34
7.56
11.32
15.14
18.32
20.13
19.97
17.52
12.95
6.87
0.23
-6.00
-11.10
-14.74
-17.04
-18.39
-19.33
-20.33
-21.74
-23.78
-26.54
-30.00
-33.97
-38.05
-41.67
-44.14
-44.85
-43.39
-39.67
-33.89
-26.50
-18.02
-9.04
-0.14
8.14
15.35
21.21
25.65
28.77
30.76
31.83
32.15
31.85
31.09
30.08
29.01
28.00
27.06
26.02
24.63
22.68
20.09
17.01
13.76
10.74
8.27
6.44
5.17
4.23
3.43
2.70
2.13
1.85
1.92
2.27
2.76
3.22
3.61
4.00
4.48
5.08
5.70
6.14
6.22
5.86
5.12
4.15
3.09
2.02
0.91
-0.33
-1.70
-3.12
-4.45
-5.53
-6.28
-6.72
-6.94
-7.03
-7.01
-6.83
-6.47
-5.95
-5.39
-4.92
-4.62
-4.46
-4.31
-4.03
-3.54
-2.84
-2.01
-1.10
-0.12
1.00
2.32
3.82
5.35
6.69
7.61
8.02
7.97
7.63
7.17
6.65
5.99
5.03
3.68
1.99
0.22
-1.28
-2.15
-2.22
-1.56
-0.38
0.99
2.30
3.38
4.15
4.61
4.76
4.59
4.13
3.42
2.53
1.54
0.54
-0.42
-1.28
-1.98
-2.41
-2.48
-2.09
-1.23
0.03
1.48
2.86
3.88
4.31
4.06
3.18
1.87
0.38
-1.08
-2.41
-3.58
-4.60
-5.42
-5.95
-6.07
-5.77
-5.16
-4.49
-4.01
-3.89
-4.12
-4.44
-4.56
-4.19
-3.25
-1.86
-0.26
1.27
2.57
3.55
4.19
4.44
4.25
3.58
2.52
1.33
0.39
0.03
0.35
1.18
2.15
2.91
3.27
3.28
3.15
3.12
3.31
3.69
4.11
4.44
4.59
4.56
4.38
4.13
3.87
3.68
3.64
3.79
4.17
4.74
5.40
6.03
6.52
6.79
6.85
6.72
6.45
6.08
5.64
5.15
4.64
4.18
3.82
3.64
3.66
3.84
4.11
4.40
4.66
4.88
5.12
5.42
5.78
6.13
6.41
6.55
6.61
6.70
6.96
7.47
8.18
8.88
9.30
9.18
8.31
6.65
4.27
1.43
-1.50
-4.10
-5.99
-6.95
-6.99
-6.31
-5.21
-3.95
-2.69
-1.51
-0.47
0.35
0.80
0.79
0.31
-0.53
-1.51
-2.43
-3.12
-3.54
-3.73
-3.74
-3.66
-3.56
-3.49
-3.51
-3.64
-3.85
-4.08
-4.25
-4.30
-4.21
-4.00
-3.75
-3.55
-3.48
-3.58
-3.84
-4.22
-4.63
-5.01
-5.29
-5.44
-5.40
-5.13
-4.59
-3.79
-2.79
-1.68
-0.48
0.85
2.47
4.51
6.99
9.68
12.18
13.99
14.74
14.31
12.86
10.71
8.22
5.68
3.28
1.14
-0.68
-2.15
-3.27
-4.13
-4.85
-5.57
-6.43
-7.48
-8.65
-9.79
-10.67
-11.03
-10.72
-9.72
-8.15
-6.28
-4.40
-2.72
-1.30
-0.06
1.14
2.43
3.82
5.21
6.36
7.03
7.03
6.31
5.01
3.38
1.72
0.30
-0.75
-1.43
-1.84
-2.10
-2.27
-2.33
-2.21
-1.91
-1.50
-1.14
-0.99
-1.09
-1.39
-1.70
-1.90
-1.93
-1.86
-1.80
-1.83
-1.89
-1.87
-1.63
-1.15
-0.52
0.03
0.28
0.09
-0.52
-1.38
-2.23
-2.83
-3.06
-2.94
-2.62
-2.29
-2.12
-2.13
-2.26
-2.40
-2.44
-2.38
-2.26
-2.17
-2.13
-2.10
-1.99
-1.70
-1.23
-0.61
0.06
0.71
1.37
2.07
2.86
3.72
4.56
5.27
5.75
6.02
6.14
6.25
6.45
6.78
7.24
7.78
8.33
8.82
9.13
9.17
8.85
8.17
7.20
6.11
5.02
3.98
2.98
1.97
0.95
-0.05
-0.94
-1.63
-2.13
-2.43
-2.55
-2.47
-2.13
-1.54
-0.76
0.04
0.66
0.98
1.00
0.90
0.91
1.22
1.88
2.75
3.65
4.38
4.82
4.96
4.88
4.65
4.34
3.94
3.43
2.83
2.20
1.69
1.40
1.38
1.58
1.87
2.07
2.06
1.80
1.30
0.65
-0.06
-0.74
-1.32
-1.72
-1.84
-1.60
-1.02
-0.19
0.74
1.57
2.18
2.51
2.63
2.65
2.67
2.72
2.73
2.61
2.27
1.73
1.07
0.43
-0.03
-0.28
-0.36
-0.38
-0.42
-0.54
-0.72
-0.95
-1.18
-1.35
-1.33
-1.02
-0.38
0.47
1.30
1.80
1.82
1.41
0.93
0.80
1.33
2.56
4.29
6.15
7.74
8.83
9.37
9.48
9.31
8.91
8.29
7.40
6.17
4.59
2.85
1.28
0.33
0.27
0.89
1.68
2.00
1.27
-0.82
-4.10
-8.17
-12.32
-16.16
-19.82
-23.67
-27.98
-32.66
-37.07
-40.05
-40.45
-37.27
-30.40
-20.84
-10.01
0.55
9.18
13.84
11.44
-0.74
-22.03
-47.43
-70.83
-86.66
-91.27
-84.19
-68.11
-45.55
-21.02
1.78
20.81
35.58
46.62
54.55
59.55
61.49
60.49
56.98
52.22
47.64
44.20
42.32
41.91
42.48
43.37
44.04
43.98
43.24
42.06
40.61
38.99
37.15
34.95
32.23
28.89
24.82
20.15
15.01
9.50
3.79
-1.82
-6.88
-10.83
-13.18
-13.78
-12.88
-11.12
-9.45
-8.85
-10.09
-13.55
-19.23
-26.69
-35.25
-43.98
-51.86
-57.94
-61.50
-62.24
-60.27
-56.09
-50.35
-43.57
-36.04
-27.85
-19.11
-10.19
-1.79
5.23
10.18
12.89
13.78
13.72
13.58
13.87
14.59
15.37
15.76
15.59
15.01
14.27
13.51
12.51
10.73
7.56
2.58
-4.22
-12.49
-21.60
-30.78
-39.10
-45.46
-48.58
-47.27
-40.80
-29.33
-14.02
3.16
19.93
34.28
44.91
51.33
53.91
53.65
51.87
50.00
49.21
50.12
52.62
55.95
58.94
60.47
59.85
57.05
52.64
47.57
42.71
38.60
35.24
32.20
28.91
24.91
19.94
13.97
7.03
-0.76
-9.12
-17.46
-24.98
-30.99
-35.36
-38.80
-42.61
-47.95
-55.02
-62.66
-68.72
-71.10
-68.87
-62.84
-55.25
-48.72
-45.14
-44.99
-47.44
-51.07
-54.55
-57.13
-58.59
-59.02
-58.50
-56.99
-54.39
-50.66
-45.85
-40.05
-33.34
-25.74
-17.27
-8.03
1.69
11.39
20.38
27.94
33.45
36.65
37.79
37.62
37.20
37.51
39.06
41.65
44.52
46.72
47.61
47.22
46.24
45.69
46.49
49.01
52.88
57.07
60.18
60.98
58.75
53.67
46.71
39.44
33.54
30.28
30.19
32.88
37.20
41.63
44.68
45.26
42.89
37.79
30.68
22.53
14.20
6.21
-1.32
-8.51
-15.44
-21.96
-27.72
-32.33
-35.58
-37.56
-38.51
-38.72
-38.32
-37.38
-35.99
-34.41
-33.05
-32.24
-32.09
-32.28
-32.29
-31.67
-30.31
-28.60
-27.19
-26.68
-27.29
-28.82
-30.79
-32.64
-34.06
-35.00
-35.58
-35.99
-36.34
-36.51
-36.14
-34.61
-31.09
-24.78
-15.23
-2.72
11.49
25.28
36.19
42.10
41.96
36.17
26.43
15.15
4.64
-3.55
-8.75
-11.05
-10.90
-8.91
-5.79
-2.33
0.67
2.59
3.13
2.74
2.51
3.79
7.54
13.86
21.86
29.96
36.30
39.06
37.55
32.50
25.82
19.75
15.95
14.89
15.78
16.82
15.42
10.02
0.82
-10.49
-21.83
-31.62
-39.07
-44.11
-47.15
-49.64
-52.26
-54.59
-55.74
-55.47
-54.62
-54.75
-57.43
-63.83
-75.63
-92.75
-112.77
-131.71
-145.58
-151.61
-148.63
-137.08
-109.84
-67.14
-16.89
29.68
64.99
87.26
98.20
100.66
98.13
93.01
85.64
76.72
67.68
60.06
54.54
50.78
47.92
45.32
42.63
38.87
33.89
28.51
23.96
21.01
19.64
19.38
19.72
20.27
20.25
19.45
18.28
17.45
17.37
17.93
18.61
18.90
18.31
16.36
13.01
8.70
4.10
-0.20
-3.81
-6.57
-8.36
-9.18
-9.22
-8.71
-7.87
-6.85
-5.73
-4.48
-3.01
-1.22
0.86
3.04
4.98
6.33
6.86
6.52
5.47
4.00
2.38
0.86
-0.42
-1.40
-2.02
-2.28
-2.18
-1.79
-1.18
-0.39
0.60
1.88
3.50
5.41
7.34
8.94
9.88
10.05
9.61
8.91
8.35
8.14
8.26
8.46
8.46
8.02
7.10
5.75
4.11
2.33
0.55
-1.09
-2.43
-3.37
-3.89
-4.05
-3.94
-3.61
-3.03
-2.17
-1.07
0.04
0.81
0.83
-0.12
-1.93
-4.14
-6.08
-7.14
-6.99
-5.70
-3.66
-1.33
0.89
2.84
4.54
6.11
7.59
8.91
9.89
10.36
10.20
9.37
7.92
5.91
3.42
0.54
-2.58
-5.73
-8.57
-10.70
-11.71
-11.28
-9.38
-6.35
-2.85
0.28
2.36
3.09
2.69
1.71
0.80
0.37
0.53
1.05
1.64
2.05
2.25
2.34
2.42
2.55
2.64
2.55
2.17
1.48
0.52
-0.60
-1.76
-2.81
-3.61
-4.01
-3.97
-3.58
-3.07
-2.69
-2.59
-2.76
-3.07
-3.26
-3.12
-2.50
-1.33
0.36
2.47
4.76
6.86
8.40
9.11
8.94
8.11
7.00
5.99
5.35
5.14
5.27
5.60
5.96
6.20
6.21
5.90
5.21
4.13
2.74
1.13
-0.55
-2.19
-3.69
-5.01
-6.14
-7.10
-7.84
-8.31
-8.38
-7.95
-6.97
-5.50
-3.70
-1.77
0.07
1.63
2.77
3.36
3.29
2.54
1.20
-0.49
-2.12
-3.28
-3.68
-3.24
-2.13
-0.73
0.54
1.33
1.45
0.92
-0.04
-1.15
-2.11
-2.73
-2.92
-2.75
-2.32
-1.75
-1.14
-0.59
-0.15
0.15
0.35
0.63
1.20
2.28
3.97
6.20
8.77
11.36
13.65
15.35
16.18
15.88
14.29
11.41
7.50
3.10
-1.06
-4.32
-6.19
-6.58
-5.70
-4.07
-2.24
-0.70
0.21
0.37
-0.14
-1.16
-2.43
-3.73
-4.93
-5.94
-6.73
-7.24
-7.37
-7.03
-6.16
-4.88
-3.43
-2.11
-1.15
-0.63
-0.48
-0.50
-0.50
-0.37
-0.07
0.42
1.14
2.12
3.35
4.70
5.94
6.74
6.85
6.23
5.07
3.76
2.71
2.09
1.80
1.52
0.86
-0.40
-2.23
-4.34
-6.39
-8.07
-9.20
-9.74
-9.67
-9.05
-7.96
-6.56
-5.02
-3.52
-2.09
-0.66
0.93
2.83
5.07
7.52
9.94
12.05
13.51
14.03
13.43
11.70
9.06
5.93
2.88
0.38
-1.28
-2.08
-2.21
-1.94
-1.51
-1.08
-0.74
-0.52
-0.48
-0.63
-0.98
-1.47
-2.01
-2.54
-2.98
-3.32
-3.54
-3.66
-3.65
-3.49
-3.20
-2.77
-2.28
-1.80
-1.40
-1.09
-0.85
-0.56
-0.16
0.39
1.06
1.76
2.40
2.92
3.27
3.44
3.44
3.30
3.10
2.89
2.67
2.30
1.57
0.26
-1.70
-4.13
-6.62
-8.66
-9.88
-10.17
-9.63
-8.54
-7.15
-5.65
-4.16
-2.77
-1.56
-0.52
0.42
1.46
2.87
4.80
7.18
9.69
11.80
13.00
13.00
11.84
9.85
7.55
5.43
3.83
2.90
2.55
2.57
2.70
2.69
2.36
1.63
0.50
-0.93
-2.51
-4.08
-5.53
-6.74
-7.64
-8.13
-8.18
-7.80
-7.09
-6.20
-5.29
-4.46
-3.72
-3.05
-2.41
-1.78
-1.24
-0.83
-0.60
-0.52
-0.53
-0.61
-0.78
-1.14
-1.71
-2.38
-2.90
-2.99
-2.45
-1.34
0.02
1.17
1.71
1.45
0.49
-0.89
-2.37
-3.70
-4.73
-5.38
-5.59
-5.28
-4.48
-3.23
-1.67
0.09
1.95
3.90
5.90
7.86
9.63
11.03
11.92
12.23
11.97
11.14
9.79
7.95
5.72
3.34
1.12
-0.60
-1.54
-1.63
-0.97
0.18
1.47
2.56
3.15
3.04
2.11
0.42
-1.85
-4.38
-6.77
-8.58
-9.51
-9.39
-8.29
-6.47
-4.34
-2.29
-0.65
0.39
0.81
0.73
0.32
-0.23
-0.79
-1.28
-1.69
-2.00
-2.24
-2.39
-2.43
-2.30
-2.02
-1.66
-1.38
-1.39
-1.86
-2.84
-4.20
-5.68
-6.91
-7.61
-7.60
-6.88
-5.57
-3.86
-1.94
0.06
2.08
4.08
6.02
7.86
9.51
10.87
11.82
12.27
12.15
11.45
10.22
8.59
6.72
4.78
2.92
1.25
-0.19
-1.42
-2.52
-3.58
-4.74
-6.12
-7.81
-9.80
-11.97
-14.08
-15.83
-16.98
-17.38
-17.07
-16.23
-15.10
-13.93
-12.95
-12.40
-12.50
-13.25
-14.37
-15.16
-14.75
-12.37
-7.83
-1.68
4.93
10.68
14.65
16.63
17.08
16.79
16.40
16.20
16.06
15.65
14.63
12.82
10.24
7.05
3.56
0.14
-2.82
-4.97
-6.11
-6.24
-5.49
-4.08
-2.24
-0.15
2.02
4.09
5.95
7.58
9.09
10.69
12.57
14.69
16.78
18.37
19.01
18.48
16.93
14.81
12.64
10.86
9.56
8.62
7.76
6.78
5.59
4.26
2.85
1.42
-0.09
-1.74
-3.53
-5.36
-7.06
-8.49
-9.60
-10.40
-10.95
-11.27
-11.29
-10.91
-10.10
-8.90
-7.48
-6.05
-4.80
-3.86
-3.29
-3.12
-3.32
-3.74
-4.14
-4.20
-3.66
-2.44
-0.65
1.38
3.21
4.41
4.71
4.06
2.60
0.63
-1.53
-3.57
-5.32
-6.68
-7.68
-8.29
-8.49
-8.18
-7.26
-5.68
-3.46
-0.67
2.52
5.93
9.31
12.39
14.88
16.53
17.19
16.90
15.81
14.21
12.44
10.81
9.55
8.69
8.15
7.72
7.14
6.28
5.08
3.65
2.08
0.45
-1.25
-3.06
-4.90
-6.62
-7.96
-8.72
-8.89
-8.60
-8.11
-7.64
-7.29
-6.98
-6.61
-6.06
-5.32
-4.45
-3.50
-2.56
-1.69
-1.02
-0.69
-0.79
-1.31
-2.08
-2.81
-3.23
-3.12
-2.48
-1.44
-0.25
0.78
1.36
1.28
0.44
-1.05
-2.91
-4.78
-6.29
-7.18
-7.33
-6.73
-5.44
-3.55
-1.18
1.47
4.11
6.43
8.19
9.32
9.94
10.26
10.47
10.64
10.68
10.50
10.06
9.47
8.90
8.49
8.24
8.03
7.65
6.91
5.79
4.34
2.69
0.94
-0.89
-2.77
-4.67
-6.45
-7.93
-8.98
-9.59
-9.83
-9.86
-9.78
-9.59
-9.20
-8.54
-7.66
-6.74
-6.01
-5.68
-5.73
-5.98
-6.15
-6.01
-5.49
-4.69
-3.80
-2.95
-2.16
-1.35
-0.43
0.63
1.73
2.61
3.02
2.77
1.84
0.41
-1.21
-2.67
-3.72
-4.24
-4.26
-3.88
-3.20
-2.25
-1.01
0.55
2.39
4.35
6.18
7.64
8.60
9.08
9.24
9.25
9.17
8.95
8.46
7.62
6.51
5.39
4.54
4.17
4.25
4.57
4.86
4.90
4.66
4.20
3.60
2.86
1.89
0.60
-1.04
-2.86
-4.61
-5.97
-6.77
-6.97
-6.69
-6.10
-5.42
-4.78
-4.26
-3.87
-3.56
-3.21
-2.74
-2.08
-1.26
-0.37
0.45
1.05
1.34
1.29
0.99
0.58
0.27
0.22
0.50
1.00
1.48
1.65
1.28
0.30
-1.14
-2.76
-4.22
-5.28
-5.84
-5.97
-5.86
-5.66
-5.43
-5.06
-4.37
-3.23
-1.68
0.03
1.50
2.40
2.60
2.24
1.64
1.16
0.99
1.12
1.37
1.52
1.45
1.14
0.68
0.14
-0.41
-0.99
-1.64
-2.36
-3.13
-3.91
-4.61
-5.18
-5.56
-5.74
-5.72
-5.57
-5.41
-5.37
-5.49
-5.71
-5.86
-5.72
-5.21
-4.40
-3.58
-3.10
-3.17
-3.76
-4.55
-5.10
-5.08
-4.43
-3.39
-2.36
-1.65
-1.33
-1.23
-1.14
-1.00
-0.95
-1.29
-2.26
-3.82
-5.67
-7.25
-8.05
-7.70
-6.11
-3.41
0.05
3.86
7.59
10.84
13.34
15.05
16.07
16.62
16.94
17.10
17.08
16.75
16.00
14.86
13.46
12.07
10.94
10.24
9.99
10.07
10.28
10.33
10.01
9.17
7.76
5.84
3.51
0.91
-1.82
-4.56
-7.21
-9.62
-11.65
-13.14
-14.00
-14.22
-13.89
-13.23
-12.44
-11.67
-10.98
-10.30
-9.50
-8.42
-7.01
-5.35
-3.63
-2.07
-0.82
0.06
0.69
1.20
1.72
2.27
2.83
3.35
3.84
4.33
4.84
5.28
5.45
5.14
4.19
2.63
0.65
-1.44
-3.34
-4.85
-5.86
-6.35
-6.35
-5.87
-4.97
-3.70
-2.18
-0.53
1.11
2.64
4.03
5.31
6.54
7.71
8.66
9.15
8.97
8.07
6.60
4.91
3.39
2.31
1.76
1.64
1.78
1.96
2.06
1.97
1.61
0.93
-0.11
-1.49
-3.11
-4.82
-6.37
-7.58
-8.30
-8.54
-8.43
-8.12
-7.70
-7.09
-6.13
-4.71
-2.93
-1.08
0.36
1.02
0.73
-0.36
-1.87
-3.38
-4.51
-5.06
-4.96
-4.22
-2.91
-1.11
0.99
3.13
4.97
6.11
6.26
5.26
3.22
0.48
-2.42
-4.88
-6.38
-6.68
-5.83
-4.24
-2.45
-0.97
-0.05
0.34
0.47
0.68
1.19
2.11
3.37
4.86
6.42
7.86
8.92
9.34
8.95
7.88
6.54
5.52
5.30
5.99
7.25
8.51
9.26
9.35
8.95
8.42
7.98
7.57
6.92
5.74
4.01
1.98
0.05
-1.55
-2.83
-4.05
-5.48
-7.20
-9.03
-10.66
-11.81
-12.37
-12.38
-11.97
-11.24
-10.27
-9.19
-8.15
-7.35
-6.91
-6.78
-6.76
-6.57
-6.02
-5.12
-4.07
-3.16
-2.59
-2.43
-2.57
-2.77
-2.82
-2.57
-1.99
-1.10
0.01
1.30
2.75
4.31
5.94
7.51
8.92
10.07
10.95
11.58
11.99
12.12
11.81
10.90
9.35
7.32
5.17
3.32
2.14
1.79
2.22
3.25
4.61
6.02
7.21
7.92
7.93
7.16
5.60
3.43
0.95
-1.50
-3.61
-5.17
-6.11
-6.53
-6.61
-6.57
-6.52
-6.45
-6.25
-5.83
-5.24
-4.71
-4.53
-4.92
-5.87
-7.15
-8.37
-9.17
-9.31
-8.76
-7.61
-6.05
-4.36
-2.81
-1.68
-1.14
-1.27
-1.95
-2.97
-4.03
-4.89
-5.40
-5.50
-5.19
-4.51
-3.47
-2.08
-0.35
1.69
3.99
6.46
8.94
11.19
12.90
13.74
13.52
12.30
10.43
8.45
6.86
5.97
5.75
5.91
6.09
6.01
5.60
4.95
4.21
3.45
2.66
1.79
0.81
-0.24
-1.31
-2.35
-3.33
-4.24
-5.03
-5.63
-5.93
-5.82
-5.24
-4.30
-3.23
-2.39
-2.14
-2.76
-4.29
-6.54
-9.12
-11.57
-13.44
-14.38
-14.20
-12.87
-10.57
-7.71
-4.83
-2.50
-1.10
-0.68
-0.97
-1.48
-1.81
-1.76
-1.41
-0.94
-0.52
-0.12
0.37
1.11
2.22
3.70
5.60
7.95
10.73
13.80
16.75
18.95
19.79
18.96
16.61
13.40
10.24
7.95
7.00
7.36
8.59
10.04
11.04
11.06
9.78
7.17
3.51
-0.65
-4.65
-7.90
-10.02
-11.01
-11.17
-10.93
-10.69
-10.65
-10.80
-11.00
-11.07
-10.90
-10.49
-9.91
-9.33
-8.95
-8.95
-9.42
-10.28
-11.33
-12.33
-13.07
-13.38
-13.17
-12.33
-10.77
-8.45
-5.46
-2.11
1.11
3.63
4.95
4.86
3.45
1.07
-1.76
-4.48
-6.58
-7.59
-7.18
-5.20
-1.76
2.64
7.20
10.98
13.25
13.72
12.66
10.79
8.90
7.52
6.79
6.52
6.42
6.33
6.25
6.29
6.45
6.66
6.81
6.87
7.01
7.43
8.24
9.27
10.10
10.19
9.13
6.80
3.43
-0.49
-4.37
-7.66
-9.93
-10.98
-10.80
-9.58
-7.65
-5.42
-3.32
-1.71
-0.79
-0.61
-1.05
-1.84
-2.64
-3.13
-3.09
-2.47
-1.45
-0.32
0.56
1.03
1.14
1.18
1.54
2.48
3.97
5.65
6.94
7.29
6.42
4.45
1.85
-0.79
-2.92
-4.28
-4.85
-4.78
-4.24
-3.30
-1.96
-0.19
1.96
4.28
6.45
8.13
9.06
9.13
8.40
7.06
5.39
3.66
2.12
0.96
0.27
0.03
0.08
0.23
0.23
-0.06
-0.68
-1.48
-2.21
-2.60
-2.51
-2.00
-1.30
-0.73
-0.51
-0.65
-1.01
-1.35
-1.54
-1.62
-1.75
-2.09
-2.66
-3.28
-3.74
-3.86
-3.63
-3.21
-2.79
-2.52
-2.44
-2.49
-2.59
-2.69
-2.77
-2.79
-2.66
-2.30
-1.68
-0.88
-0.12
0.38
0.44
0.05
-0.71
-1.62
-2.54
-3.34
-4.00
-4.48
-4.75
-4.70
-4.21
-3.23
-1.79
-0.08
1.68
3.26
4.57
5.66
6.66
7.65
8.63
9.45
9.88
9.75
9.02
7.83
6.43
5.10
4.06
3.38
3.00
2.78
2.55
2.17
1.51
0.54
-0.75
-2.27
-3.89
-5.41
-6.67
-7.54
-7.99
-8.02
-7.69
-7.06
-6.17
-5.12
-4.03
-3.10
-2.52
-2.48
-3.07
-4.23
-5.76
-7.32
-8.52
-8.99
-8.57
-7.30
-5.43
-3.32
-1.31
0.33
1.45
1.93
1.68
0.67
-0.99
-3.01
-4.92
-6.25
-6.68
-6.08
-4.56
-2.34
0.32
3.24
6.26
9.25
12.00
14.30
15.97
16.93
17.24
17.03
16.41
15.42
14.01
12.11
9.78
7.20
4.66
2.41
0.59
-0.82
-1.89
-2.69
-3.17
-3.28
-3.03
-2.58
-2.20
-2.13
-2.46
-3.07
-3.71
-4.15
-4.29
-4.18
-3.97
-3.77
-3.63
-3.48
-3.25
-2.91
-2.55
-2.30
-2.29
-2.57
-3.07
-3.67
-4.28
-4.86
-5.45
-6.04
-6.54
-6.76
-6.51
-5.74
-4.68
-3.75
-3.39
-3.82
-4.94
-6.31
-7.41
-7.84
-7.48
-6.40
-4.81
-2.92
-0.89
1.14
3.03
4.67
6.04
7.20
8.29
9.41
10.57
11.64
12.40
12.66
12.31
11.39
10.06
8.53
7.01
5.66
4.58
3.82
3.35
3.09
2.93
2.73
2.35
1.71
0.77
-0.44
-1.80
-3.17
-4.46
-5.64
-6.69
-7.64
-8.46
-9.06
-9.35
-9.25
-8.76
-7.93
-6.88
-5.73
-4.56
-3.44
-2.36
-1.31
-0.30
0.58
1.19
1.36
1.01
0.17
-0.90
-1.86
-2.38
-2.32
-1.78
-1.04
-0.50
-0.42
-0.85
-1.62
-2.46
-3.12
-3.45
-3.49
-3.33
-3.07
-2.68
-2.03
-0.97
0.56
2.42
4.36
6.08
7.41
8.35
9.03
9.55
9.91
9.99
9.61
8.71
7.40
5.88
4.41
3.12
2.01
1.02
0.07
-0.80
-1.50
-1.93
-2.06
-1.92
-1.67
-1.45
-1.37
-1.48
-1.72
-2.00
-2.24
-2.38
-2.48
-2.60
-2.79
-3.04
-3.22
-3.19
-2.82
-2.14
-1.31
-0.62
-0.29
-0.44
-0.96
-1.64
-2.21
-2.53
-2.59
-2.49
-2.34
-2.20
-2.07
-1.92
-1.80
-1.84
-2.22
-3.06
-4.34
-5.85
-7.28
-8.29
-8.64
-8.23
-7.13
-5.55
-3.74
-1.96
-0.37
0.97
2.14
3.25
4.37
5.55
6.76
7.93
9.01
9.94
10.66
11.05
10.99
10.38
9.26
7.79
6.23
4.83
3.74
2.98
2.45
2.01
1.56
1.06
0.54
0.06
-0.36
-0.76
-1.22
-1.79
-2.49
-3.24
-3.94
-4.46
-4.78
-4.89
-4.84
-4.69
-4.49
-4.26
-4.01
-3.75
-3.45
-3.07
-2.59
-1.98
-1.29
-0.67
-0.25
-0.14
-0.33
-0.68
-0.98
-1.09
-0.98
-0.79
-0.72
-0.95
-1.51
-2.29
-3.06
-3.59
-3.78
-3.68
-3.40
-3.10
-2.81
-2.45
-1.84
-0.73
1.07
3.58
6.68
10.03
13.14
15.44
16.41
15.74
13.45
9.95
6.02
2.56
0.34
-0.27
0.57
2.31
4.25
5.88
7.04
7.80
8.32
8.54
8.17
6.82
4.27
0.66
-3.44
-7.31
-10.31
-12.14
-12.88
-12.88
-12.51
-12.02
-11.45
-10.74
-9.81
-8.69
-7.51
-6.46
-5.69
-5.24
-5.08
-5.03
-4.91
-4.58
-3.93
-2.94
-1.65
-0.21
1.20
2.33
2.97
3.03
2.53
1.61
0.46
-0.74
-1.86
-2.83
-3.59
-4.09
-4.24
-4.00
-3.37
-2.38
-1.06
0.56
2.44
4.50
6.56
8.38
9.72
10.49
10.71
10.55
10.19
9.78
9.35
8.88
8.33
7.70
7.03
6.37
5.76
5.20
4.61
3.95
3.16
2.26
1.25
0.14
-1.07
-2.38
-3.77
-5.14
-6.36
-7.28
-7.84
-8.09
-8.17
-8.22
-8.25
-8.14
-7.71
-6.85
-5.66
-4.44
-3.52
-3.14
-3.27
-3.70
-4.09
-4.23
-4.02
-3.49
-2.71
-1.72
-0.59
0.61
1.63
2.21
2.13
1.35
0.06
-1.40
-2.68
-3.52
-3.82
-3.61
-2.96
-1.95
-0.65
0.84
2.45
4.08
5.63
6.98
8.00
8.59
8.69
8.37
7.83
7.32
7.05
7.05
7.18
7.23
7.05
6.65
6.18
5.84
5.72
5.78
5.85
5.72
5.21
4.22
2.75
0.86
-1.32
-3.57
-5.66
-7.34
-8.42
-8.84
-8.66
-8.03
-7.13
-6.18
-5.36
-4.83
-4.67
-4.90
-5.41
-6.05
-6.61
-6.95
-6.98
-6.69
-6.18
-5.56
-4.92
-4.30
-3.64
-2.89
-2.00
-1.03
-0.14
0.44
0.49
-0.09
-1.21
-2.60
-3.92
-4.84
-5.19
-4.97
-4.32
-3.45
-2.51
-1.52
-0.39
1.01
2.76
4.79
6.90
8.83
10.35
11.30
11.66
11.49
10.86
9.87
8.59
7.05
5.36
3.65
2.17
1.13
0.71
0.88
1.46
2.11
2.50
2.38
1.68
0.50
-0.98
-2.57
-4.13
-5.58
-6.88
-8.01
-8.92
-9.53
-9.78
-9.65
-9.20
-8.50
-7.67
-6.74
-5.71
-4.53
-3.20
-1.75
-0.31
0.95
1.89
2.47
2.74
2.85
2.94
3.10
3.34
3.56
3.69
3.61
3.27
2.68
1.90
1.02
0.16
-0.60
-1.20
-1.60
-1.77
-1.70
-1.39
-0.84
-0.08
0.88
2.04
3.42
5.02
6.76
8.47
9.91
10.79
10.90
10.17
8.70
6.73
4.58
2.56
0.94
-0.11
-0.52
-0.30
0.40
1.36
2.30
2.98
3.23
2.99
2.28
1.20
-0.13
-1.54
-2.87
-3.94
-4.64
-4.90
-4.77
-4.36
-3.79
-3.18
-2.62
-2.19
-1.96
-1.99
-2.32
-2.88
-3.53
-4.02
-4.13
-3.75
-2.97
-2.01
-1.16
-0.63
-0.51
-0.73
-1.22
-1.92
-2.81
-3.89
-5.06
-6.12
-6.81
-6.93
-6.44
-5.48
-4.33
-3.21
-2.16
-1.09
0.20
1.81
3.64
5.47
7.00
8.06
8.66
8.96
9.15
9.34
9.44
9.29
8.73
7.74
6.46
5.14
4.01
3.21
2.75
2.55
2.53
2.62
2.74
2.80
2.65
2.12
1.08
-0.42
-2.19
-3.84
-5.01
-5.47
-5.17
-4.28
-3.05
-1.70
-0.44
0.59
1.22
1.29
0.69
-0.53
-2.16
-3.87
-5.34
-6.41
-7.08
-7.51
-7.84
-8.12
-8.27
-8.17
-7.75
-7.03
-6.16
-5.33
-4.70
-4.39
-4.46
-4.85
-5.47
-6.09
-6.47
-6.37
-5.64
-4.29
-2.48
-0.43
1.63
3.58
5.40
7.15
8.86
10.54
12.14
13.52
14.54
15.03
14.90
14.15
12.90
11.35
9.76
8.33
7.18
6.30
5.59
4.93
4.24
3.45
2.45
1.13
-0.61
-2.84
-5.47
-8.27
-10.91
-13.06
-14.45
-14.96
-14.58
-13.43
-11.70
-9.61
-7.44
-5.43
-3.82
-2.73
-2.19
-2.07
-2.17
-2.27
-2.24
-2.10
-1.98
-2.03
-2.33
-2.78
-3.15
-3.19
-2.81
-2.11
-1.36
-0.87
-0.82
-1.25
-1.97
-2.75
-3.38
-3.69
-3.62
-3.17
-2.36
-1.22
0.22
1.91
3.78
5.71
7.58
9.27
10.74
11.98
13.00
13.78
14.22
14.19
13.56
12.33
10.63
8.70
6.83
5.21
3.96
3.10
2.57
2.22
1.86
1.29
0.32
-1.12
-2.95
-5.02
-7.14
-9.18
-11.09
-12.82
-14.23
-15.09
-15.12
-14.17
-12.31
-9.81
-7.10
-4.58
-2.53
-1.06
-0.17
0.18
-0.00
-0.68
-1.77
-3.06
-4.21
-4.82
-4.58
-3.35
-1.27
1.26
3.69
5.47
6.20
5.76
4.34
2.31
0.13
-1.82
-3.29
-4.18
-4.52
-4.38
-3.82
-2.89
-1.61
-0.03
1.77
3.73
5.78
7.89
10.06
12.23
14.24
15.82
16.63
16.43
15.19
13.20
10.94
8.93
7.48
6.57
5.93
5.18
4.03
2.42
0.48
-1.60
-3.61
-5.45
-7.02
-8.18
-8.76
-8.63
-7.82
-6.55
-5.19
-4.14
-3.60
-3.57
-3.85
-4.19
-4.37
-4.34
-4.20
-4.09
-4.17
-4.49
-5.00
-5.56
-5.92
-5.83
-5.09
-3.68
-1.85
-0.05
1.20
1.53
0.89
-0.47
-2.06
-3.38
-4.12
-4.22
-3.83
-3.11
-2.20
-1.10
0.24
1.81
3.54
5.31
6.97
8.42
9.63
10.64
11.49
12.15
12.56
12.61
12.25
11.52
10.57
9.61
8.83
8.36
8.17
8.14
8.11
7.89
7.31
6.25
4.62
2.43
-0.20
-3.04
-5.81
-8.25
-10.21
-11.64
-12.59
-13.06
-13.07
-12.64
-11.83
-10.77
-9.65
-8.65
-7.86
-7.27
-6.75
-6.19
-5.52
-4.75
-3.95
-3.18
-2.49
-1.85
-1.22
-0.56
0.08
0.56
0.71
0.40
-0.37
-1.43
-2.49
-3.28
-3.63
-3.52
-3.09
-2.48
-1.83
-1.15
-0.41
0.41
1.28
2.13
2.89
3.58
4.28
5.05
5.94
6.88
7.71
8.26
8.38
8.02
7.26
6.29
5.35
4.65
4.30
4.25
4.32
4.32
4.07
3.56
2.89
2.21
1.59
1.02
0.41
-0.28
-1.04
-1.76
-2.34
-2.74
-3.03
-3.34
-3.76
-4.28
-4.77
-5.11
-5.17
-4.95
-4.55
-4.06
-3.61
-3.26
-3.03
-2.95
-3.00
-3.14
-3.29
-3.36
-3.23
-2.86
-2.24
-1.41
-0.42
0.64
1.63
2.37
2.63
2.22
1.11
-0.55
-2.42
-4.08
-5.19
-5.57
-5.25
-4.41
-3.24
-1.96
-0.68
0.55
1.77
3.03
4.41
5.97
7.66
9.38
10.96
12.22
13.03
13.36
13.25
12.76
11.93
10.84
9.56
8.25
7.09
6.24
5.70
5.32
4.83
3.96
2.57
0.70
-1.47
-3.68
-5.74
-7.53
-8.97
-10.03
-10.66
-10.87
-10.72
-10.34
-9.90
-9.49
-9.14
-8.78
-8.31
-7.65
-6.79
-5.73
-4.47
-2.96
-1.16
0.90
3.09
5.18
6.90
8.09
8.67
8.71
8.29
7.46
6.21
4.53
2.46
0.17
-2.07
-4.00
-5.43
-6.31
-6.70
-6.75
-6.60
-6.35
-6.06
-5.77
-5.49
-5.20
-4.81
-4.16
-3.07
-1.39
0.89
3.56
6.22
8.37
9.57
9.65
8.72
7.20
5.57
4.25
3.44
3.13
3.11
3.16
3.11
2.90
2.51
1.99
1.36
0.62
-0.25
-1.29
-2.49
-3.80
-5.09
-6.20
-6.98
-7.30
-7.11
-6.42
-5.30
-3.85
-2.20
-0.58
0.76
1.52
1.66
1.41
1.43
2.43
4.86
8.57
12.72
16.12
17.78
17.32
15.13
12.07
8.96
6.23
3.83
1.49
-0.92
-3.24
-5.11
-6.24
-6.67
-6.76
-7.02
-7.75
-8.94
-10.22
-11.11
-11.23
-10.47
-9.01
-7.21
-5.39
-3.78
-2.42
-1.24
-0.13
0.98
2.07
3.04
3.74
4.03
3.86
3.30
2.51
1.70
1.04
0.60
0.34
0.14
-0.12
-0.58
-1.32
-2.36
-3.64
-5.02
-6.32
-7.36
-7.99
-8.15
-7.88
-7.31
-6.62
-5.95
-5.39
-4.92
-4.47
-3.99
-3.43
-2.81
-2.18
-1.62
-1.13
-0.71
-0.29
0.13
0.52
0.81
0.94
0.98
1.09
1.48
2.21
3.19
4.07
4.43
3.89
2.37
0.06
-2.59
-5.05
-6.90
-7.90
-8.05
-7.49
-6.45
-5.16
-3.78
-2.41
-1.03
0.45
2.10
3.96
5.91
7.79
9.37
10.51
11.14
11.24
10.87
10.06
8.90
7.49
6.06
4.83
4.00
3.61
3.53
3.50
3.21
2.46
1.23
-0.31
-1.91
-3.32
-4.42
-5.19
-5.69
-5.99
-6.13
-6.06
-5.78
-5.29
-4.66
-3.98
-3.35
-2.79
-2.29
-1.84
-1.48
-1.27
-1.29
-1.55
-1.96
-2.37
-2.60
-2.58
-2.33
-1.93
-1.49
-1.05
-0.64
-0.25
0.03
0.10
-0.13
-0.66
-1.37
-2.07
-2.59
-2.90
-3.10
-3.31
-3.59
-3.89
-4.03
-3.80
-3.09
-1.82
-0.04
2.17
4.70
7.37
9.99
12.29
14.03
15.02
15.18
14.57
13.34
11.74
10.03
8.45
7.16
6.21
5.52
4.92
4.21
3.27
2.05
0.59
-1.06
-2.85
-4.73
-6.62
-8.39
-9.83
-10.71
-10.94
-10.55
-9.74
-8.75
-7.78
-6.92
-6.16
-5.46
-4.82
-4.29
-3.91
-3.67
-3.49
-3.25
-2.84
-2.28
-1.66
-1.12
-0.79
-0.67
-0.70
-0.71
-0.58
-0.27
0.13
0.42
0.37
-0.14
-1.07
-2.23
-3.35
-4.19
-4.66
-4.79
-4.66
-4.33
-3.76
-2.87
-1.59
0.06
2.03
4.17
6.33
8.38
10.21
11.69
12.72
13.18
13.00
12.21
10.94
9.40
7.81
6.35
5.13
4.15
3.36
2.68
2.04
1.36
0.59
-0.32
-1.39
-2.56
-3.72
-4.72
-5.47
-5.97
-6.28
-6.52
-6.73
-6.88
-6.88
-6.63
-6.07
-5.25
-4.27
-3.27
-2.35
-1.58
-1.02
-0.68
-0.58
-0.71
-1.02
-1.47
-1.95
-2.33
-2.44
-2.16
-1.41
-0.28
1.00
2.09
2.64
2.41
1.36
-0.34
-2.34
-4.24
-5.69
-6.53
-6.76
-6.51
-5.97
-5.25
-4.35
-3.20
-1.71
0.14
2.25
4.47
6.62
8.59
10.29
11.63
12.46
12.61
11.97
10.63
8.84
6.99
5.42
4.27
3.48
2.88
2.31
1.74
1.22
0.79
0.45
0.08
-0.47
-1.29
-2.36
-3.54
-4.64
-5.51
-6.03
-6.21
-6.07
-5.65
-5.02
-4.20
-3.27
-2.29
-1.37
-0.61
-0.07
0.22
0.29
0.18
-0.05
-0.35
-0.71
-1.10
-1.49
-1.83
-2.02
-1.97
-1.61
-1.00
-0.29
0.20
0.20
-0.47
-1.73
-3.25
-4.63
-5.51
-5.76
-5.43
-4.73
-3.87
-2.96
-2.04
-1.05
0.04
1.21
2.47
3.79
5.23
6.81
8.50
10.17
11.57
12.41
12.45
11.58
9.91
7.73
5.42
3.36
1.79
0.83
0.44
0.49
0.75
1.00
0.97
0.51
-0.46
-1.84
-3.40
-4.86
-5.96
-6.55
-6.62
-6.25
-5.60
-4.83
-4.07
-3.42
-2.91
-2.50
-2.15
-1.80
-1.47
-1.18
-0.99
-0.88
-0.77
-0.58
-0.26
0.16
0.56
0.87
1.07
1.22
1.37
1.50
1.51
1.23
0.57
-0.50
-1.84
-3.26
-4.56
-5.57
-6.20
-6.39
-6.13
-5.47
-4.52
-3.40
-2.27
-1.19
-0.15
0.95
2.18
3.59
5.11
6.61
7.91
8.89
9.49
9.68
9.46
8.85
7.90
6.70
5.42
4.23
3.28
2.64
2.31
2.19
2.13
2.02
1.76
1.29
0.57
-0.40
-1.58
-2.86
-4.07
-5.03
-5.59
-5.73
-5.48
-4.98
-4.36
-3.75
-3.19
-2.70
-2.32
-2.06
-1.90
-1.79
-1.63
-1.35
-0.98
-0.66
-0.54
-0.72
-1.14
-1.65
-2.01
-2.09
-1.87
-1.50
-1.18
-1.11
-1.40
-2.07
-3.03
-4.14
-5.20
-6.01
-6.37
-6.15
-5.30
-3.89
-2.09
-0.14
1.77
3.55
5.24
6.98
8.86
10.84
12.71
14.15
14.87
14.70
13.68
12.05
10.10
8.14
6.40
5.03
4.08
3.51
3.21
3.00
2.70
2.10
1.12
-0.26
-1.93
-3.71
-5.42
-6.83
-7.80
-8.25
-8.23
-7.93
-7.58
-7.41
-7.52
-7.82
-8.08
-8.02
-7.48
-6.49
-5.24
-3.98
-2.92
-2.11
-1.49
-0.95
-0.46
-0.04
0.27
0.47
0.65
0.96
1.52
2.31
3.16
3.76
3.80
3.11
1.71
-0.15
-2.15
-3.93
-5.29
-6.11
-6.40
-6.20
-5.51
-4.38
-2.85
-1.05
0.84
2.62
4.16
5.42
6.44
7.31
8.06
8.67
9.03
9.01
8.51
7.52
6.12
4.49
2.90
1.56
0.64
0.17
0.06
0.12
0.16
-0.01
-0.47
-1.19
-2.06
-2.97
-3.80
-4.53
-5.11
-5.52
-5.71
-5.62
-5.21
-4.52
-3.62
-2.68
-1.80
-1.06
-0.47
-0.00
0.32
0.49
0.48
0.32
0.14
0.06
0.19
0.52
1.00
1.51
1.95
2.25
2.35
2.19
1.70
0.86
-0.30
-1.64
-3.03
-4.30
-5.36
-6.18
-6.71
-6.87
-6.59
-5.82
-4.54
-2.80
-0.74
1.47
3.61
5.44
6.77
7.53
7.81
7.80
7.72
7.69
7.67
7.55
7.21
6.62
5.91
5.26
4.80
4.56
4.43
4.24
3.87
3.25
2.36
1.24
-0.06
-1.51
-3.05
-4.59
-6.03
-7.21
-8.00
-8.30
-8.07
-7.37
-6.32
-5.10
-3.93
-2.98
-2.36
-2.10
-2.14
-2.33
-2.53
-2.64
-2.58
-2.39
-2.14
-1.92
-1.79
-1.76
-1.74
-1.63
-1.34
-0.82
-0.08
0.76
1.52
1.99
1.97
1.37
0.21
-1.31
-2.90
-4.25
-5.15
-5.50
-5.38
-4.92
-4.23
-3.40
-2.38
-1.12
0.47
2.37
4.50
6.69
8.76
10.49
11.75
12.44
12.48
11.86
10.59
8.80
6.72
4.68
3.02
1.98
1.64
1.88
2.40
2.88
3.04
2.72
1.91
0.69
-0.78
-2.34
-3.83
-5.14
-6.16
-6.85
-7.23
-7.35
-7.34
-7.31
-7.30
-7.31
-7.26
-7.06
-6.66
-6.00
-5.05
-3.83
-2.43
-1.02
0.15
0.87
1.06
0.84
0.50
0.37
0.66
1.38
2.38
3.36
4.05
4.25
3.85
2.85
1.34
-0.47
-2.30
-3.82
-4.78
-5.03
-4.59
-3.62
-2.29
-0.76
0.90
2.67
4.48
6.20
7.65
8.63
9.05
8.95
8.47
7.76
6.95
6.09
5.17
4.21
3.24
2.25
1.22
0.06
-1.31
-2.96
-4.82
-6.74
-8.48
-9.80
-10.54
-10.65
-10.22
-9.42
-8.46
-7.48
-6.55
-5.70
-4.88
-4.08
-3.32
-2.62
-2.00
-1.46
-0.93
-0.39
0.16
0.71
1.24
1.79
2.35
2.90
3.27
3.23
2.58
1.31
-0.32
-1.85
-2.80
-2.89
-2.22
-1.20
-0.36
-0.10
-0.48
-1.30
-2.16
-2.74
-2.88
-2.62
-2.13
-1.59
-1.13
-0.81
-0.58
-0.36
-0.06
0.43
1.13
2.02
3.03
4.04
4.96
5.70
6.20
6.37
6.14
5.48
4.45
3.22
2.09
1.35
1.19
1.65
2.53
3.45
3.97
3.70
2.49
0.42
-2.18
-4.83
-7.06
-8.53
-9.03
-8.55
-7.19
-5.21
-2.92
-0.70
1.08
2.24
2.89
3.45
4.55
6.74
10.18
14.54
19.05
22.84
25.35
26.51
26.75
26.63
26.49
26.20
25.34
23.46
20.48
16.77
12.96
9.62
6.90
4.57
2.19
-0.54
-3.61
-6.66
-9.26
-11.10
-12.18
-12.71
-12.98
-13.15
-13.23
-13.12
-12.74
-12.12
-11.37
-10.68
-10.12
-9.63
-9.06
-8.24
-7.11
-5.77
-4.44
-3.39
-2.75
-2.49
-2.45
-2.40
-2.17
-1.74
-1.15
-0.55
-0.03
0.35
0.57
0.71
0.82
0.96
1.11
1.18
1.05
0.62
-0.10
-1.01
-1.94
-2.75
-3.36
-3.80
-4.15
-4.42
-4.58
-4.54
-4.22
-3.63
-2.92
-2.27
-1.83
-1.68
-1.77
-2.04
-2.40
-2.79
-3.13
-3.32
-3.20
-2.63
-1.61
-0.34
0.82
1.46
1.26
0.17
-1.60
-3.65
-5.56
-7.02
-7.88
-8.13
-7.84
-7.10
-6.04
-4.77
-3.40
-2.04
-0.73
0.54
1.79
3.05
4.27
5.30
5.95
6.00
5.31
3.88
1.93
-0.22
-2.15
-3.55
-4.27
-4.35
-3.99
-3.43
-2.90
-2.52
-2.40
-2.55
-2.97
-3.61
-4.37
-5.14
-5.79
-6.24
-6.47
-6.45
-6.17
-5.62
-4.76
-3.65
-2.37
-1.03
0.27
1.51
2.68
3.78
4.79
5.61
6.15
6.33
6.11
5.50
4.62
3.60
2.64
1.93
1.57
1.56
1.74
1.83
1.52
0.65
-0.74
-2.46
-4.17
-5.59
-6.49
-6.77
-6.46
-5.66
-4.57
-3.36
-2.21
-1.23
-0.42
0.31
1.12
2.15
3.47
5.04
6.66
8.08
9.04
9.33
8.94
7.98
6.71
5.39
4.22
3.32
2.67
2.18
1.72
1.17
0.45
-0.42
-1.41
-2.43
-3.39
-4.23
-4.90
-5.38
-5.65
-5.67
-5.45
-5.03
-4.49
-3.95
-3.48
-3.10
-2.75
-2.34
-1.80
-1.12
-0.34
0.45
1.16
1.74
2.16
2.42
2.54
2.56
2.54
2.53
2.62
2.86
3.26
3.68
3.89
3.61
2.66
1.03
-1.05
-3.26
-5.20
-6.63
-7.40
-7.54
-7.14
-6.36
-5.34
-4.18
-2.98
-1.78
-0.60
0.54
1.68
2.83
4.04
5.33
6.69
8.03
9.18
9.92
10.05
9.52
8.40
6.95
5.42
4.05
2.96
2.17
1.64
1.31
1.09
0.90
0.65
0.24
-0.39
-1.28
-2.35
-3.52
-4.62
-5.53
-6.16
-6.47
-6.52
-6.39
-6.16
-5.87
-5.47
-4.92
-4.15
-3.19
-2.15
-1.16
-0.37
0.13
0.33
0.25
-0.06
-0.57
-1.19
-1.76
-2.00
-1.64
-0.53
1.21
3.15
4.66
5.21
4.58
3.00
1.02
-0.70
-1.77
-2.12
-2.02
-1.84
-1.83
-2.03
-2.28
-2.36
-2.09
-1.42
-0.44
0.77
2.09
3.48
4.89
6.26
7.46
8.29
8.57
8.15
7.08
5.52
3.82
2.31
1.27
0.78
0.74
0.91
1.03
0.93
0.52
-0.17
-1.03
-1.96
-2.86
-3.64
-4.23
-4.61
-4.73
-4.61
-4.30
-3.87
-3.43
-3.05
-2.75
-2.55
-2.41
-2.32
-2.21
-2.04
-1.76
-1.36
-0.88
-0.42
-0.15
-0.14
-0.42
-0.87
-1.26
-1.39
-1.21
-0.85
-0.58
-0.72
-1.44
-2.65
-4.05
-5.23
-5.84
-5.75
-5.03
-3.85
-2.40
-0.84
0.76
2.31
3.76
5.08
6.33
7.60
8.97
10.39
11.67
12.51
12.73
12.29
11.35
10.19
9.01
7.89
6.84
5.87
5.04
4.48
4.19
4.09
3.94
3.53
2.74
1.62
0.33
-1.03
-2.43
-3.92
-5.53
-7.20
-8.75
-9.99
-10.83
-11.28
-11.39
-11.22
-10.76
-9.91
-8.62
-6.99
-5.24
-3.67
-2.51
-1.84
-1.57
-1.48
-1.37
-1.12
-0.68
-0.05
0.75
1.70
2.75
3.81
4.67
5.14
5.02
4.22
2.80
0.96
-1.06
-2.96
-4.50
-5.50
-5.91
-5.75
-5.09
-4.03
-2.68
-1.15
0.45
2.05
3.59
5.06
6.45
7.74
8.81
9.49
9.57
8.91
7.49
5.54
3.45
1.66
0.52
0.20
0.61
1.47
2.44
3.17
3.44
3.17
2.46
1.50
0.50
-0.36
-1.03
-1.57
-2.17
-3.06
-4.47
-6.45
-8.79
-11.02
-12.52
-12.72
-11.38
-8.69
-5.24
-1.77
1.10
3.12
4.37
5.08
5.37
5.14
4.14
2.17
-0.62
-3.68
-6.23
-7.54
-7.32
-5.84
-3.78
-1.97
-0.95
-0.86
-1.44
-2.26
-2.97
-3.41
-3.56
-3.47
-3.16
-2.59
-1.77
-0.76
0.27
1.10
1.60
1.73
1.65
1.67
2.12
3.29
5.22
7.62
9.99
11.74
12.46
12.12
11.00
9.59
8.28
7.26
6.45
5.66
4.76
3.74
2.70
1.76
0.93
0.13
-0.78
-1.88
-3.09
-4.25
-5.19
-5.78
-6.04
-6.08
-6.08
-6.12
-6.21
-6.25
-6.09
-5.64
-4.85
-3.79
-2.56
-1.30
-0.12
0.81
1.33
1.28
0.58
-0.66
-2.10
-3.24
-3.62
-2.99
-1.53
0.25
1.70
2.29
1.83
0.52
-1.23
-2.92
-4.21
-4.99
-5.28
-5.17
-4.73
-3.99
-2.98
-1.73
-0.32
1.17
2.70
4.27
5.85
7.41
8.86
10.08
10.98
11.55
11.81
11.76
11.40
10.69
9.66
8.49
7.47
6.84
6.70
6.89
7.02
6.68
5.65
3.98
1.94
-0.04
-1.67
-2.77
-3.34
-3.45
-3.21
-2.77
-2.40
-2.44
-3.25
-4.99
-7.45
-10.06
-12.04
-12.75
-11.92
-9.86
-7.26
-4.90
-3.30
-2.51
-2.23
-2.01
-1.62
-1.11
-0.82
-1.03
-1.79
-2.80
-3.58
-3.73
-3.13
-2.04
-0.91
-0.16
0.02
-0.28
-0.78
-1.19
-1.30
-1.08
-0.59
0.01
0.61
1.14
1.58
1.93
2.20
2.37
2.44
2.44
2.45
2.56
2.84
3.25
3.64
3.82
3.63
3.08
2.31
1.54
0.94
0.55
0.29
0.07
-0.18
-0.40
-0.46
-0.28
0.07
0.40
0.45
0.07
-0.72
-1.71
-2.63
-3.25
-3.52
-3.55
-3.57
-3.78
-4.28
-5.02
-5.81
-6.39
-6.55
-6.12
-5.11
-3.63
-1.86
-0.04
1.59
2.86
3.69
4.09
4.17
4.09
3.98
3.85
3.63
3.17
2.34
1.15
-0.24
-1.54
-2.45
-2.77
-2.52
-1.84
-0.96
-0.09
0.70
1.41
2.15
3.01
4.04
5.24
6.53
7.80
8.91
9.72
10.14
10.12
9.65
8.81
7.70
6.46
5.19
4.01
2.95
2.07
1.36
0.79
0.34
-0.06
-0.49
-1.00
-1.63
-2.37
-3.18
-4.01
-4.81
-5.57
-6.28
-6.89
-7.36
-7.63
-7.67
-7.51
-7.27
-7.03
-6.90
-6.90
-7.00
-7.14
-7.25
-7.23
-7.01
-6.53
-5.73
-4.61
-3.22
-1.69
-0.18
1.15
2.16
2.80
3.12
3.23
3.25
3.28
3.36
3.46
3.53
3.52
3.39
3.10
2.66
2.10
1.50
0.99
0.65
0.48
0.40
0.27
0.02
-0.27
-0.40
-0.11
0.74
2.12
3.79
5.44
6.78
7.64
7.95
7.72
7.00
5.84
4.38
2.79
1.28
0.05
-0.81
-1.26
-1.39
-1.29
-1.13
-1.02
-1.07
-1.35
-1.83
-2.46
-3.11
-3.67
-4.03
-4.12
-3.94
-3.49
-2.88
-2.20
-1.58
-1.13
-0.90
-0.88
-1.00
-1.15
-1.15
-0.86
-0.21
0.77
1.95
3.12
4.04
4.52
4.52
4.14
3.57
3.07
2.79
2.77
2.90
2.97
2.75
2.07
0.90
-0.65
-2.39
-4.07
-5.46
-6.39
-6.75
-6.56
-5.90
-4.98
-4.02
-3.24
-2.69
-2.31
-1.89
-1.23
-0.22
1.06
2.41
3.56
4.31
4.52
4.22
3.50
2.54
1.52
0.65
0.06
-0.14
-0.00
0.33
0.64
0.70
0.38
-0.32
-1.26
-2.20
-2.95
-3.41
-3.59
-3.61
-3.63
-3.68
-3.77
-3.83
-3.79
-3.63
-3.32
-2.88
-2.32
-1.65
-0.92
-0.20
0.42
0.88
1.15
1.28
1.37
1.53
1.86
2.38
3.02
3.61
3.93
3.79
3.13
2.07
0.85
-0.29
-1.16
-1.78
-2.23
-2.62
-2.97
-3.21
-3.21
-2.90
-2.34
-1.69
-1.14
-0.83
-0.80
-0.94
-1.10
-1.09
-0.83
-0.26
0.56
1.54
2.55
3.48
4.27
4.89
5.34
5.64
5.77
5.74
5.55
5.31
5.10
4.99
4.93
4.79
4.39
3.59
2.41
0.99
-0.45
-1.76
-2.85
-3.74
-4.50
-5.15
-5.70
-6.07
-6.23
-6.15
-5.87
-5.47
-5.02
-4.57
-4.16
-3.75
-3.32
-2.81
-2.15
-1.31
-0.25
0.95
2.15
3.13
3.67
3.62
3.00
2.03
1.03
0.33
0.11
0.36
0.87
1.33
1.47
1.16
0.37
-0.81
-2.21
-3.63
-4.86
-5.68
-5.94
-5.56
-4.61
-3.22
-1.66
-0.14
1.15
2.18
3.03
3.85
4.79
5.94
7.22
8.47
9.44
9.91
9.73
8.92
7.58
5.92
4.16
2.55
1.25
0.33
-0.24
-0.60
-0.94
-1.37
-1.91
-2.52
-3.12
-3.64
-4.08
-4.47
-4.83
-5.14
-5.37
-5.50
-5.52
-5.44
-5.26
-4.99
-4.63
-4.14
-3.50
-2.70
-1.74
-0.69
0.35
1.25
1.93
2.36
2.60
2.73
2.77
2.69
2.43
1.97
1.36
0.75
0.28
-0.02
-0.22
-0.49
-1.01
-1.85
-2.93
-4.02
-4.86
-5.24
-5.08
-4.46
-3.56
-2.61
-1.75
-1.00
-0.25
0.69
1.93
3.50
5.24
6.91
8.25
9.10
9.38
9.14
8.44
7.37
6.04
4.59
3.15
1.89
0.88
0.12
-0.46
-0.96
-1.45
-1.94
-2.42
-2.90
-3.39
-3.88
-4.33
-4.66
-4.75
-4.54
-4.03
-3.30
-2.51
-1.81
-1.35
-1.17
-1.21
-1.34
-1.36
-1.10
-0.51
0.34
1.26
2.02
2.41
2.38
1.96
1.29
0.51
-0.19
-0.69
-0.88
-0.71
-0.23
0.42
1.03
1.36
1.22
0.51
-0.72
-2.31
-4.00
-5.49
-6.53
-7.00
-6.86
-6.22
-5.22
-3.96
-2.48
-0.74
1.25
3.43
5.62
7.56
9.04
9.89
10.13
9.83
9.13
8.18
7.06
5.83
4.55
3.26
2.01
0.87
-0.13
-0.99
-1.76
-2.51
-3.29
-4.09
-4.85
-5.46
-5.83
-5.91
-5.71
-5.30
-4.75
-4.16
-3.64
-3.25
-3.07
-3.06
-3.13
-3.14
-2.97
-2.56
-1.92
-1.13
-0.27
0.51
1.07
1.19
0.73
-0.30
-1.66
-2.89
-3.48
-3.11
-1.78
0.14
2.08
3.47
3.97
3.51
2.22
0.39
-1.71
-3.80
-5.61
-6.89
-7.42
-7.10
-5.99
-4.29
-2.27
-0.20
1.76
3.53
5.15
6.68
8.22
9.81
11.42
12.90
13.99
14.42
14.02
12.79
10.99
8.96
7.10
5.64
4.61
3.90
3.32
2.67
1.81
0.68
-0.71
-2.25
-3.80
-5.20
-6.31
-7.11
-7.61
-7.86
-7.90
-7.70
-7.22
-6.49
-5.60
-4.70
-3.94
-3.37
-2.91
-2.41
-1.72
-0.86
0.02
0.67
0.85
0.54
-0.10
-0.75
-1.09
-0.93
-0.33
0.52
1.33
1.85
1.97
1.67
1.05
0.24
-0.52
-0.90
-0.50
0.94
3.39
6.40
9.22
11.09
11.57
10.74
9.12
7.44
6.26
5.76
5.77
5.94
5.95
5.62
4.91
3.87
2.57
1.11
-0.40
-1.78
-2.90
-3.63
-3.92
-3.83
-3.49
-3.07
-2.78
-2.77
-3.10
-3.78
-4.74
-5.84
-6.94
-7.90
-8.58
-8.92
-8.94
-8.76
-8.53
-8.35
-8.18
-7.89
-7.32
-6.42
-5.28
-4.08
-3.06
-2.31
-1.86
-1.61
-1.50
-1.49
-1.59
-1.76
-1.87
-1.76
-1.29
-0.46
0.60
1.58
2.18
2.17
1.48
0.25
-1.24
-2.69
-3.82
-4.50
-4.71
-4.54
-4.08
-3.47
-2.72
-1.85
-0.81
0.51
2.19
4.23
6.55
8.87
10.87
12.24
12.83
12.66
11.90
10.77
9.43
7.97
6.42
4.86
3.45
2.35
1.73
1.58
1.69
1.78
1.52
0.75
-0.52
-2.08
-3.68
-5.09
-6.23
-7.15
-8.00
-8.86
-9.72
-10.48
-10.93
-10.97
-10.55
-9.74
-8.68
-7.47
-6.17
-4.79
-3.32
-1.81
-0.33
1.02
2.15
3.05
3.74
4.28
4.68
4.90
4.88
4.64
4.27
3.95
3.86
4.04
4.37
4.64
4.60
4.13
3.27
2.20
1.17
0.33
-0.26
-0.60
-0.71
-0.60
-0.22
0.47
1.48
2.71
4.04
5.31
6.39
7.17
7.61
7.70
7.42
6.79
5.87
4.77
3.71
2.91
2.57
2.76
3.37
4.16
4.81
5.04
4.65
3.66
2.22
0.54
-1.14
-2.72
-4.17
-5.54
-6.85
-8.05
-9.03
-9.69
-10.04
-10.16
-10.14
-10.04
-9.77
-9.23
-8.35
-7.17
-5.86
-4.62
-3.55
-2.66
-1.82
-0.90
0.17
1.36
2.52
3.52
4.24
4.67
4.86
4.87
4.75
4.44
3.88
3.00
1.82
0.46
-0.92
-2.15
-3.13
-3.83
-4.29
-4.54
-4.59
-4.37
-3.80
-2.79
-1.28
0.65
2.86
5.16
7.31
9.10
10.42
11.17
11.35
11.01
10.20
9.04
7.61
6.07
4.54
3.14
1.95
0.99
0.24
-0.40
-0.99
-1.62
-2.29
-3.00
-3.67
-4.21
-4.55
-4.69
-4.66
-4.52
-4.37
-4.26
-4.22
-4.27
-4.39
-4.57
-4.75
-4.87
-4.86
-4.65
-4.20
-3.54
-2.77
-2.07
-1.64
-1.62
-2.05
-2.79
-3.53
-3.90
-3.59
-2.56
-1.03
0.55
1.68
2.05
1.60
0.56
-0.75
-1.99
-2.96
-3.58
-3.80
-3.65
-3.14
-2.32
-1.29
-0.14
1.04
2.26
3.57
5.05
6.72
8.51
10.19
11.51
12.21
12.16
11.41
10.17
8.72
7.29
6.00
4.82
3.65
2.41
1.08
-0.26
-1.52
-2.61
-3.51
-4.24
-4.83
-5.27
-5.57
-5.70
-5.72
-5.67
-5.64
-5.64
-5.65
-5.54
-5.19
-4.53
-3.60
-2.57
-1.70
-1.17
-1.05
-1.23
-1.51
-1.73
-1.82
-1.89
-2.03
-2.30
-2.59
-2.69
-2.42
-1.71
-0.69
0.41
1.35
1.98
2.27
2.27
2.00
1.52
0.83
-0.00
-0.84
-1.53
-1.93
-1.99
-1.76
-1.32
-0.75
-0.06
0.77
1.78
2.96
4.28
5.65
6.96
8.06
8.79
9.01
8.64
7.73
6.50
5.27
4.36
3.93
3.96
4.27
4.60
4.77
4.69
4.35
3.74
2.83
1.59
0.04
-1.69
-3.36
-4.73
-5.65
-6.11
-6.24
-6.20
-6.10
-5.97
-5.76
-5.45
-5.05
-4.66
-4.40
-4.32
-4.36
-4.39
-4.26
-3.88
-3.28
-2.54
-1.80
-1.15
-0.63
-0.24
0.02
0.15
0.11
-0.15
-0.64
-1.32
-2.07
-2.74
-3.22
-3.44
-3.43
-3.23
-2.93
-2.52
-1.98
-1.26
-0.36
0.68
1.77
2.86
3.95
5.09
6.33
7.61
8.76
9.58
9.91
9.75
9.23
8.53
7.82
7.14
6.47
5.77
5.04
4.32
3.65
2.98
2.19
1.14
-0.25
-1.89
-3.55
-4.97
-5.93
-6.41
-6.52
-6.47
-6.41
-6.42
-6.50
-6.61
-6.72
-6.79
-6.81
-6.70
-6.38
-5.76
-4.83
-3.65
-2.39
-1.21
-0.21
0.60
1.34
2.14
3.09
4.18
5.26
6.10
6.50
6.30
5.48
4.15
2.48
0.68
-1.09
-2.67
-3.92
-4.74
-5.07
-4.90
-4.33
-3.46
-2.43
-1.27
0.03
1.51
3.12
4.76
6.23
7.38
8.09
8.34
8.21
7.77
7.09
6.22
5.25
4.29
3.48
2.92
2.66
2.58
2.51
2.26
1.71
0.84
-0.27
-1.49
-2.76
-4.06
-5.39
-6.71
-7.87
-8.55
-8.45
-7.39
-5.46
-2.98
-0.45
1.70
3.17
3.93
4.04
3.65
2.86
1.76
0.44
-0.96
-2.18
-2.95
-3.09
-2.52
-1.36
0.19
1.82
3.23
4.17
4.47
4.11
3.17
1.87
0.46
-0.86
-1.94
-2.75
-3.34
-3.78
-4.15
-4.55
-4.97
-5.36
-5.58
-5.45
-4.81
-3.57
-1.82
0.25
2.35
4.20
5.61
6.43
6.62
6.14
5.07
3.59
1.97
0.52
-0.48
-0.94
-0.95
-0.70
-0.46
-0.39
-0.53
-0.85
-1.24
-1.65
-2.08
-2.55
-3.04
-3.53
-3.92
-4.13
-4.09
-3.78
-3.20
-2.39
-1.42
-0.39
0.53
1.19
1.47
1.34
0.90
0.28
-0.35
-0.88
-1.29
-1.64
-1.98
-2.32
-2.62
-2.79
-2.75
-2.52
-2.18
-1.94
-1.98
-2.41
-3.21
-4.17
-5.03
-5.57
-5.66
-5.31
-4.62
-3.66
-2.47
-1.03
0.67
2.56
4.52
6.39
8.08
9.59
10.96
12.17
13.12
13.60
13.42
12.56
11.14
9.46
7.79
6.27
4.85
3.40
1.83
0.20
-1.27
-2.35
-2.93
-3.08
-3.00
-2.94
-3.04
-3.34
-3.75
-4.18
-4.54
-4.82
-5.07
-5.31
-5.54
-5.68
-5.64
-5.34
-4.76
-4.05
-3.39
-3.04
-3.14
-3.60
-4.15
-4.44
-4.15
-3.22
-1.85
-0.43
0.65
1.13
0.96
0.31
-0.60
-1.59
-2.59
-3.56
-4.50
-5.27
-5.68
-5.49
-4.59
-3.02
-0.97
1.24
3.39
5.30
6.91
8.23
9.23
9.90
10.20
10.09
9.61
8.83
7.84
6.75
5.67
4.69
3.86
3.15
2.47
1.69
0.76
-0.29
-1.36
-2.30
-3.08
-3.76
-4.48
-5.35
-6.33
-7.28
-7.98
-8.25
-8.09
-7.60
-6.98
-6.36
-5.78
-5.20
-4.53
-3.74
-2.90
-2.08
-1.35
-0.69
-0.04
0.68
1.48
2.28
2.97
3.45
3.68
3.69
3.55
3.30
2.95
2.49
1.85
1.03
0.02
-1.15
-2.40
-3.64
-4.73
-5.56
-6.01
-6.04
-5.61
-4.73
-3.47
-1.91
-0.15
1.71
3.58
5.43
7.22
8.89
10.28
11.22
11.50
11.05
9.91
8.27
6.43
4.66
3.18
2.07
1.32
0.83
0.44
0.02
-0.53
-1.22
-1.97
-2.64
-3.11
-3.33
-3.29
-3.07
-2.73
-2.36
-1.98
-1.69
-1.51
-1.48
-1.56
-1.64
-1.60
-1.32
-0.80
-0.15
0.42
0.70
0.57
0.04
-0.71
-1.43
-1.83
-1.71
-1.04
-0.03
1.00
1.67
1.73
1.08
-0.13
-1.67
-3.28
-4.78
-6.04
-7.00
-7.57
-7.66
-7.24
-6.33
-5.03
-3.49
-1.85
-0.16
1.56
3.30
5.04
6.66
8.07
9.17
9.90
10.25
10.24
9.90
9.26
8.43
7.50
6.62
5.87
5.28
4.77
4.23
3.54
2.64
1.53
0.29
-0.97
-2.19
-3.27
-4.19
-4.89
-5.36
-5.61
-5.71
-5.78
-5.94
-6.25
-6.67
-7.07
-7.23
-6.99
-6.28
-5.13
-3.71
-2.27
-1.04
-0.24
0.04
-0.15
-0.66
-1.21
-1.57
-1.53
-1.04
-0.19
0.80
1.69
2.21
2.20
1.61
0.51
-0.91
-2.36
-3.56
-4.31
-4.44
-3.97
-3.02
-1.80
-0.57
0.44
1.14
1.58
1.95
2.51
3.47
4.84
6.42
7.92
9.03
9.59
9.62
9.28
8.69
7.91
6.89
5.55
3.90
2.10
0.44
-0.86
-1.69
-2.14
-2.43
-2.76
-3.28
-4.00
-4.84
-5.70
-6.44
-6.92
-6.97
-6.50
-5.53
-4.29
-3.11
-2.35
-2.19
-2.55
-3.15
-3.61
-3.66
-3.25
-2.47
-1.56
-0.70
0.01
0.56
1.01
1.43
1.87
2.38
2.99
3.65
4.26
4.62
4.53
3.88
2.68
1.10
-0.61
-2.17
-3.39
-4.20
-4.63
-4.73
-4.57
-4.18
-3.58
-2.81
-1.91
-0.97
-0.04
0.82
1.59
2.29
3.00
3.81
4.72
5.64
6.35
6.62
6.31
5.49
4.41
3.38
2.63
2.26
2.17
2.20
2.21
2.09
1.82
1.37
0.73
-0.07
-1.02
-2.06
-3.09
-3.97
-4.57
-4.78
-4.55
-3.95
-3.16
-2.39
-1.85
-1.62
-1.69
-1.92
-2.18
-2.31
-2.25
-1.95
-1.43
-0.77
-0.08
0.51
0.89
1.03
0.99
0.91
0.94
1.17
1.62
2.19
2.68
2.86
2.53
1.61
0.19
-1.45
-2.98
-4.05
-4.49
-4.31
-3.72
-2.98
-2.32
-1.89
-1.67
-1.60
-1.56
-1.46
-1.20
-0.76
-0.14
0.56
1.22
1.70
1.91
1.90
1.81
1.83
2.11
2.70
3.54
4.49
5.39
6.04
6.29
5.97
4.98
3.34
1.23
-1.02
-3.00
-4.37
-4.98
-4.92
-4.47
-3.96
-3.61
-3.46
-3.32
-2.95
-2.12
-0.85
0.68
2.10
3.04
3.24
2.68
1.52
0.10
-1.19
-2.02
-2.18
-1.58
-0.30
1.48
3.52
5.44
6.85
7.42
6.94
5.48
3.36
1.10
-0.75
-1.85
-2.19
-2.01
-1.68
-1.55
-1.70
-2.03
-2.30
-2.29
-1.93
-1.23
-0.32
0.65
1.53
2.20
2.57
2.63
2.46
2.20
2.02
1.97
1.96
1.81
1.34
0.43
-0.84
-2.29
-3.66
-4.74
-5.39
-5.59
-5.36
-4.80
-3.99
-3.07
-2.16
-1.42
-0.94
-0.74
-0.78
-0.92
-1.00
-0.88
-0.47
0.23
1.13
2.07
2.83
3.20
3.02
2.31
1.21
0.05
-0.79
-1.02
-0.51
0.60
1.98
3.16
3.77
3.57
2.57
0.96
-0.91
-2.65
-3.90
-4.44
-4.23
-3.39
-2.20
-1.00
-0.04
0.53
0.77
0.83
0.92
1.16
1.57
2.05
2.39
2.39
1.85
0.73
-0.87
-2.61
-4.03
-4.66
-4.22
-2.74
-0.68
1.29
2.48
2.45
1.23
-0.78
-2.88
-4.45
-5.07
-4.71
-3.61
-2.17
-0.80
0.18
0.64
0.56
0.13
-0.37
-0.61
-0.38
0.34
1.33
2.22
2.67
2.49
1.79
0.82
-0.10
-0.74
-0.95
-0.77
-0.27
0.38
0.95
1.17
0.79
-0.30
-2.00
-3.93
-5.64
-6.69
-6.87
-6.25
-5.13
-3.89
-2.84
-2.13
-1.70
-1.39
-0.98
-0.32
0.68
2.02
3.65
5.43
7.18
8.63
9.53
9.70
9.09
7.88
6.34
4.83
3.63
2.88
2.58
2.62
2.85
3.08
3.19
3.07
2.65
1.91
0.88
-0.35
-1.62
-2.78
-3.68
-4.24
-4.43
-4.29
-3.89
-3.35
-2.83
-2.48
-2.45
-2.74
-3.20
-3.57
-3.55
-2.98
-1.90
-0.58
0.66
1.55
2.01
2.13
2.09
1.97
1.76
1.34
0.57
-0.56
-1.92
-3.32
-4.53
-5.40
-5.89
-6.05
-5.91
-5.50
-4.80
-3.80
-2.54
-1.10
0.40
1.85
3.14
4.23
5.12
5.86
6.47
6.98
7.32
7.33
6.81
5.51
3.35
0.42
-2.88
-6.04
-8.48
-9.84
-9.99
-9.17
-7.76
-6.20
-4.78
-3.63
-2.68
-1.87
-1.19
-0.69
-0.44
-0.42
-0.50
-0.46
-0.11
0.61
1.60
2.61
3.38
3.74
3.63
3.17
2.59
2.21
2.30
3.06
4.52
6.43
8.40
9.87
10.39
9.74
7.95
5.32
2.27
-0.80
-3.56
-5.81
-7.39
-8.20
-8.22
-7.50
-6.18
-4.50
-2.72
-1.07
0.33
1.42
2.28
2.98
3.64
4.32
4.99
5.54
5.79
5.58
4.87
3.75
2.53
1.53
1.03
1.14
1.76
2.58
3.22
3.31
2.64
1.22
-0.77
-2.98
-5.00
-6.48
-7.21
-7.13
-6.35
-5.04
-3.42
-1.72
-0.11
1.23
2.20
2.76
2.93
2.81
2.53
2.15
1.71
1.22
0.65
0.03
-0.48
-0.66
-0.29
0.75
2.33
4.09
5.49
5.99
5.24
3.26
0.36
-2.86
-5.80
-7.97
-9.12
-9.28
-8.64
-7.46
-6.00
-4.47
-3.04
-1.79
-0.76
0.08
0.89
1.85
3.14
4.78
6.61
8.29
9.43
9.76
9.27
8.17
6.84
5.64
4.80
4.36
4.17
4.02
3.66
2.92
1.69
-0.03
-2.13
-4.38
-6.43
-7.89
-8.47
-8.07
-6.86
-5.22
-3.63
-2.43
-1.73
-1.44
-1.39
-1.46
-1.62
-1.91
-2.32
-2.75
-3.06
-3.11
-2.88
-2.44
-1.88
-1.24
-0.54
0.21
0.86
1.21
1.01
0.14
-1.33
-3.13
-4.84
-6.00
-6.33
-5.71
-4.30
-2.42
-0.44
1.37
2.87
4.10
5.14
6.08
6.92
7.58
7.96
8.01
7.70
7.12
6.36
5.56
4.83
4.24
3.80
3.50
3.29
3.16
3.12
3.18
3.35
3.55
3.55
3.09
1.89
-0.12
-2.75
-5.55
-7.93
-9.36
-9.56
-8.53
-6.59
-4.26
-2.16
-0.90
-0.93
-2.44
-5.19
-8.49
-11.37
-12.86
-12.40
-10.07
-6.52
-2.75
0.38
2.39
3.28
3.37
3.05
2.56
1.97
1.24
0.43
-0.26
-0.54
-0.16
0.86
2.22
3.46
4.18
4.27
4.00
3.83
4.16
5.13
6.47
7.66
8.22
7.86
6.64
4.91
3.11
1.63
0.63
0.07
-0.26
-0.59
-1.04
-1.54
-1.86
-1.70
-0.90
0.47
1.99
3.04
2.99
1.51
-1.25
-4.65
-7.73
-9.55
-9.45
-7.28
-3.41
1.34
5.87
9.05
10.00
8.32
4.34
-0.98
-6.27
-10.18
-11.84
-11.10
-8.44
-4.69
-0.75
2.67
5.09
6.21
5.91
4.29
1.69
-1.30
-4.00
-5.87
-6.56
-6.11
-4.79
-3.01
-1.17
0.43
1.65
2.48
3.04
3.51
4.09
4.92
6.08
7.56
9.28
11.02
12.46
13.23
13.07
11.91
10.00
7.80
5.87
4.61
4.15
4.30
4.64
4.71
4.18
2.92
0.94
-1.58
-4.39
-7.18
-9.54
-11.11
-11.64
-11.09
-9.74
-8.05
-6.59
-5.80
-5.87
-6.72
-8.08
-9.57
-10.82
-11.58
-11.73
-11.32
-10.47
-9.42
-8.36
-7.44
-6.69
-6.06
-5.43
-4.72
-3.90
-3.07
-2.40
-2.06
-2.14
-2.56
-3.12
-3.52
-3.46
-2.79
-1.49
0.24
2.12
3.87
5.34
6.54
7.63
8.82
10.21
11.71
13.07
13.92
14.03
13.33
12.03
10.46
8.95
7.66
6.67
5.91
5.35
4.95
4.63
4.28
3.68
2.65
1.07
-0.97
-3.17
-5.17
-6.65
-7.49
-7.80
-7.81
-7.71
-7.60
-7.37
-6.87
-5.95
-4.58
-2.89
-1.09
0.58
1.83
2.37
1.88
0.17
-2.69
-6.18
-9.42
-11.41
-11.42
-9.41
-6.01
-2.30
0.63
2.12
2.14
1.14
-0.28
-1.62
-2.66
-3.37
-3.78
-3.82
-3.34
-2.18
-0.31
2.10
4.71
7.16
9.16
10.59
11.54
12.12
12.42
12.38
11.84
10.68
8.95
6.92
5.01
3.60
2.87
2.69
2.73
2.57
1.94
0.73
-0.95
-2.88
-4.76
-6.28
-7.19
-7.36
-6.82
-5.79
-4.64
-3.73
-3.34
-3.52
-4.13
-4.90
-5.52
-5.77
-5.59
-5.10
-4.57
-4.30
-4.54
-5.33
-6.46
-7.56
-8.18
-7.99
-6.92
-5.17
-3.20
-1.53
-0.61
-0.62
-1.45
-2.70
-3.86
-4.45
-4.19
-3.09
-1.33
0.75
2.85
4.69
6.13
7.08
7.53
7.58
7.37
7.11
7.00
7.13
7.41
7.65
7.60
7.14
6.28
5.21
4.17
3.36
2.84
2.55
2.35
2.14
1.86
1.54
1.19
0.81
0.34
-0.24
-0.89
-1.51
-1.99
-2.26
-2.37
-2.46
-2.67
-3.05
-3.52
-3.93
-4.13
-4.12
-3.96
-3.80
-3.76
-3.90
-4.20
-4.69
-5.30
-5.87
-6.14
-5.77
-4.55
-2.51
-0.02
2.32
3.97
4.64
4.38
3.50
2.40
1.36
0.52
-0.07
-0.39
-0.40
-0.08
0.45
0.98
1.30
1.32
1.17
1.12
1.45
2.24
3.31
4.32
4.93
5.02
4.65
4.07
3.48
2.98
2.53
2.09
1.72
1.59
1.89
2.66
3.73
4.74
5.29
5.06
3.98
2.22
0.10
-2.03
-3.88
-5.33
-6.30
-6.77
-6.71
-6.11
-5.04
-3.70
-2.46
-1.72
-1.76
-2.67
-4.22
-6.00
-7.62
-8.83
-9.60
-10.02
-10.13
-9.86
-9.05
-7.55
-5.39
-2.85
-0.40
1.48
2.47
2.50
1.81
0.82
0.01
-0.24
0.32
1.76
4.01
6.88
10.08
13.22
15.86
17.60
18.17
17.52
15.92
13.84
11.81
10.23
9.23
8.61
8.08
7.34
6.29
5.07
3.94
3.15
2.74
2.54
2.25
1.56
0.31
-1.41
-3.34
-5.14
-6.57
-7.51
-7.97
-8.01
-7.68
-6.99
-5.97
-4.74
-3.54
-2.63
-2.27
-2.62
-3.75
-5.59
-7.93
-10.41
-12.55
-13.90
-14.14
-13.29
-11.67
-9.72
-7.85
-6.22
-4.70
-3.06
-1.15
0.92
2.79
4.02
4.33
3.76
2.76
2.07
2.52
4.74
8.94
14.81
21.46
27.56
31.56
31.94
27.71
18.87
6.73
-6.20
-16.84
-22.59
-22.40
-17.13
-9.14
-1.28
4.31
6.89
7.03
5.88
4.43
3.00
1.42
-0.57
-2.84
-4.83
-5.84
-5.46
-3.87
-1.76
-0.04
0.65
0.18
-1.06
-2.37
-3.19
-3.29
-2.89
-2.48
-2.56
-3.40
-4.97
-6.99
-9.07
-10.85
-12.09
-12.68
-12.62
-12.02
-11.05
-9.91
-8.81
-7.93
-7.37
-7.08
-6.84
-6.32
-5.20
-3.37
-0.97
1.56
3.75
5.26
6.12
6.72
7.58
9.11
11.40
14.22
17.17
19.80
21.62
22.14
20.86
17.53
12.38
6.34
0.79
-2.87
-3.89
-2.44
0.43
3.36
5.31
5.94
5.55
4.76
3.99
3.32
2.50
1.25
-0.50
-2.59
-4.68
-6.47
-7.83
-8.81
-9.54
-10.17
-10.72
-11.09
-11.15
-10.81
-10.05
-8.99
-7.81
-6.74
-5.93
-5.49
-5.41
-5.61
-5.91
-6.15
-6.23
-6.16
-6.02
-5.93
-5.93
-5.91
-5.67
-4.97
-3.75
-2.16
-0.60
0.45
0.63
-0.10
-1.48
-2.99
-4.11
-4.51
-4.15
-3.16
-1.85
-0.47
0.80
1.90
2.86
3.78
4.79
5.99
7.39
8.92
10.40
11.61
12.38
12.62
12.38
11.81
11.07
10.33
9.72
9.31
9.11
9.06
9.01
8.77
8.13
6.94
5.16
2.85
0.22
-2.47
-4.93
-6.93
-8.37
-9.24
-9.65
-9.68
-9.42
-8.92
-8.24
-7.50
-6.89
-6.59
-6.72
-7.22
-7.87
-8.33
-8.35
-7.82
-6.85
-5.65
-4.43
-3.30
-2.25
-1.22
-0.21
0.68
1.25
1.34
0.94
0.22
-0.51
-0.94
-0.93
-0.56
-0.04
0.38
0.60
0.69
0.83
1.25
2.06
3.19
4.50
5.80
6.98
8.02
8.97
9.86
10.67
11.30
11.65
11.64
11.30
10.78
10.24
9.82
9.54
9.28
8.77
7.74
5.98
3.50
0.50
-2.63
-5.48
-7.70
-9.17
-9.94
-10.22
-10.20
-9.99
-9.59
-8.92
-7.95
-6.74
-5.48
-4.41
-3.77
-3.66
-4.10
-4.94
-6.00
-7.09
-7.94
-8.27
-7.77
-6.23
-3.65
-0.39
2.90
5.49
6.76
6.54
5.01
2.68
0.11
-2.23
-4.08
-5.29
-5.75
-5.40
-4.26
-2.52
-0.49
1.43
2.95
3.99
4.67
5.21
5.84
6.66
7.61
8.53
9.25
9.62
9.60
9.21
8.56
7.79
7.03
6.40
5.95
5.72
5.67
5.72
5.73
5.53
4.98
3.96
2.50
0.73
-1.14
-2.89
-4.37
-5.51
-6.29
-6.70
-6.71
-6.34
-5.65
-4.81
-4.04
-3.52
-3.35
-3.47
-3.77
-4.09
-4.40
-4.71
-5.07
-5.51
-5.94
-6.20
-6.12
-5.64
-4.87
-4.09
-3.60
-3.57
-3.92
-4.37
-4.53
-4.11
-3.06
-1.59
-0.02
1.34
2.37
3.13
3.79
4.58
5.72
7.42
9.82
12.86
16.21
19.16
20.76
20.18
17.18
12.28
6.75
2.05
-0.71
-1.23
-0.05
1.81
3.41
4.33
4.66
4.79
4.97
5.07
4.73
3.55
1.43
-1.33
-4.18
-6.55
-8.19
-9.14
-9.67
-10.04
-10.30
-10.33
-9.92
-8.99
-7.72
-6.48
-5.66
-5.47
-5.89
-6.66
-7.49
-8.22
-8.78
-9.17
-9.32
-9.01
-8.01
-6.17
-3.63
-0.81
1.72
3.43
4.08
3.78
2.89
1.84
0.95
0.32
-0.11
-0.42
-0.62
-0.61
-0.30
0.33
1.14
1.89
2.42
2.68
2.81
3.06
3.63
4.56
5.72
6.86
7.69
8.02
7.84
7.25
6.46
5.74
5.26
5.13
5.28
5.54
5.69
5.50
4.83
3.66
2.06
0.21
-1.65
-3.25
-4.42
-5.13
-5.55
-5.93
-6.51
-7.33
-8.17
-8.68
-8.58
-7.82
-6.63
-5.39
-4.39
-3.69
-3.12
-2.50
-1.80
-1.24
-1.14
-1.72
-2.92
-4.39
-5.64
-6.25
-6.08
-5.24
-4.08
-2.96
-2.17
-1.85
-1.97
-2.35
-2.70
-2.68
-1.99
-0.49
1.72
4.36
7.04
9.43
11.32
12.69
13.60
14.11
14.19
13.77
12.79
11.33
9.58
7.84
6.37
5.31
4.60
4.09
3.64
3.18
2.79
2.58
2.64
2.93
3.29
3.51
3.41
2.90
2.02
0.83
-0.60
-2.18
-3.80
-5.28
-6.43
-7.10
-7.32
-7.23
-7.04
-6.90
-6.87
-6.88
-6.90
-6.94
-7.12
-7.52
-8.14
-8.85
-9.46
-9.83
-9.87
-9.65
-9.21
-8.57
-7.67
-6.48
-5.05
-3.57
-2.29
-1.43
-1.07
-1.10
-1.33
-1.55
-1.59
-1.37
-0.83
0.07
1.32
2.89
4.65
6.44
8.12
9.56
10.67
11.36
11.57
11.26
10.53
9.52
8.48
7.60
7.01
6.71
6.63
6.70
6.80
6.84
6.72
6.40
5.92
5.39
4.97
4.75
4.65
4.49
4.02
3.09
1.68
-0.08
-2.00
-3.89
-5.61
-7.06
-8.21
-9.03
-9.51
-9.67
-9.55
-9.20
-8.72
-8.21
-7.78
-7.46
-7.24
-7.07
-6.88
-6.68
-6.51
-6.44
-6.46
-6.42
-6.09
-5.24
-3.82
-2.00
-0.16
1.30
2.05
2.02
1.34
0.31
-0.77
-1.67
-2.24
-2.43
-2.21
-1.54
-0.43
1.04
2.71
4.34
5.70
6.67
7.29
7.72
8.13
8.59
9.01
9.23
9.05
8.38
7.29
5.96
4.64
3.58
2.94
2.77
2.98
3.40
3.84
4.10
4.06
3.61
2.70
1.31
-0.50
-2.58
-4.70
-6.59
-8.02
-8.82
-8.97
-8.51
-7.57
-6.35
-5.18
-4.43
-4.46
-5.42
-7.10
-8.92
-10.12
-10.04
-8.46
-5.64
-2.20
1.12
3.74
5.41
6.13
6.04
5.33
4.14
2.61
0.92
-0.70
-2.05
-2.96
-3.38
-3.35
-2.99
-2.45
-1.87
-1.40
-1.08
-0.86
-0.56
0.03
1.03
2.46
4.12
5.75
7.10
8.02
8.49
8.57
8.36
7.91
7.26
6.45
5.58
4.80
4.24
3.99
4.05
4.32
4.59
4.62
4.24
3.39
2.19
0.89
-0.29
-1.18
-1.79
-2.26
-2.72
-3.28
-3.90
-4.50
-4.99
-5.32
-5.49
-5.50
-5.38
-5.18
-4.99
-4.98
-5.25
-5.84
-6.62
-7.36
-7.89
-8.10
-8.06
-7.89
-7.70
-7.49
-7.20
-6.76
-6.14
-5.43
-4.75
-4.21
-3.89
-3.74
-3.67
-3.58
-3.34
-2.90
-2.22
-1.28
-0.11
1.26
2.77
4.34
5.98
7.71
9.57
11.55
13.54
15.29
16.56
17.13
16.95
16.15
14.93
13.50
11.99
10.43
8.87
7.34
5.98
4.88
4.10
3.53
3.00
2.25
1.13
-0.40
-2.22
-4.09
-5.77
-7.11
-8.07
-8.73
-9.23
-9.64
-9.91
-9.95
-9.64
-8.99
-8.11
-7.26
-6.71
-6.62
-7.01
-7.72
-8.52
-9.16
-9.43
-9.16
-8.18
-6.41
-3.90
-0.88
2.22
4.92
6.85
7.81
7.82
7.05
5.71
3.98
2.09
0.29
-1.16
-2.02
-2.22
-1.83
-1.06
-0.08
1.01
2.20
3.52
4.96
6.44
7.81
8.92
9.65
9.92
9.71
9.03
8.00
6.76
5.50
4.35
3.38
2.56
1.85
1.20
0.59
0.00
-0.62
-1.37
-2.35
-3.55
-4.85
-6.07
-6.96
-7.40
-7.37
-6.99
-6.46
-5.93
-5.50
-5.15
-4.83
-4.44
-3.97
-3.45
-2.96
-2.57
-2.28
-2.07
-1.90
-1.79
-1.84
-2.16
-2.72
-3.36
-3.76
-3.58
-2.72
-1.37
0.02
0.93
0.98
0.13
-1.34
-3.03
-4.53
-5.59
-6.15
-6.23
-5.87
-5.07
-3.86
-2.29
-0.51
1.34
3.18
4.98
6.77
8.56
10.27
11.73
12.71
13.02
12.56
11.35
9.56
7.41
5.15
3.01
1.17
-0.30
-1.43
-2.30
-2.91
-3.12
-2.69
-1.47
0.47
2.72
4.66
5.70
5.57
4.42
2.77
1.15
-0.11
-1.02
-1.80
-2.59
-3.32
-3.69
-3.36
-2.21
-0.44
1.49
3.08
4.04
4.29
4.01
3.42
2.66
1.80
0.85
-0.15
-1.10
-1.91
-2.50
-2.90
-3.19
-3.51
-3.96
-4.61
-5.43
-6.33
-7.17
-7.77
-7.98
-7.66
-6.79
-5.43
-3.75
-1.98
-0.37
0.95
1.99
2.88
3.81
4.93
6.27
7.69
8.96
9.84
10.15
9.87
9.07
7.90
6.54
5.18
3.98
3.06
2.50
2.27
2.28
2.40
2.48
2.38
2.03
1.33
0.25
-1.15
-2.76
-4.37
-5.72
-6.58
-6.85
-6.61
-6.03
-5.35
-4.74
-4.22
-3.74
-3.19
-2.55
-1.90
-1.42
-1.30
-1.69
-2.53
-3.65
-4.70
-5.37
-5.41
-4.80
-3.71
-2.45
-1.40
-0.87
-0.99
-1.73
-2.93
-4.34
-5.72
-6.86
-7.59
-7.75
-7.24
-6.06
-4.32
-2.28
-0.29
1.38
2.59
3.45
4.21
5.19
6.56
8.31
10.20
11.85
12.92
13.20
12.72
11.63
10.16
8.52
6.83
5.22
3.79
2.69
2.00
1.68
1.50
1.14
0.32
-1.02
-2.65
-4.15
-5.12
-5.36
-4.94
-4.12
-3.11
-2.02
-0.84
0.44
1.68
2.60
2.88
2.37
1.16
-0.43
-2.00
-3.32
-4.31
-5.06
-5.64
-6.04
-6.15
-5.84
-5.04
-3.78
-2.20
-0.51
1.07
2.29
2.91
2.77
1.82
0.24
-1.64
-3.40
-4.66
-5.19
-4.98
-4.19
-3.12
-2.03
-1.11
-0.38
0.29
1.14
2.34
3.92
5.70
7.38
8.65
9.33
9.44
9.11
8.49
7.70
6.78
5.76
4.77
3.98
3.55
3.54
3.84
4.20
4.40
4.31
3.92
3.30
2.46
1.34
-0.14
-2.01
-4.16
-6.41
-8.53
-10.33
-11.73
-12.68
-13.14
-13.05
-12.42
-11.34
-9.97
-8.55
-7.24
-6.11
-5.16
-4.36
-3.67
-3.07
-2.46
-1.73
-0.70
0.69
2.36
4.06
5.51
6.47
6.83
6.61
5.91
4.84
3.49
1.97
0.36
-1.16
-2.39
-3.14
-3.26
-2.74
-1.70
-0.42
0.85
1.92
2.80
3.61
4.45
5.36
6.18
6.70
6.75
6.34
5.65
4.94
4.38
3.99
3.61
3.09
2.34
1.47
0.72
0.31
0.38
0.84
1.47
1.94
2.00
1.48
0.38
-1.15
-2.84
-4.37
-5.45
-5.91
-5.77
-5.24
-4.59
-4.02
-3.57
-3.16
-2.66
-2.06
-1.49
-1.18
-1.31
-1.94
-2.92
-4.03
-5.04
-5.77
-6.05
-5.80
-4.98
-3.69
-2.16
-0.77
0.14
0.35
-0.13
-1.08
-2.21
-3.23
-3.96
-4.35
-4.43
-4.27
-3.89
-3.29
-2.46
-1.39
-0.07
1.45
3.12
4.87
6.60
8.22
9.60
10.59
11.04
10.90
10.27
9.35
8.41
7.65
7.11
6.71
6.34
5.97
5.62
5.33
5.09
4.72
4.00
2.75
0.95
-1.22
-3.47
-5.49
-7.13
-8.36
-9.28
-9.95
-10.42
-10.65
-10.58
-10.18
-9.43
-8.41
-7.20
-5.96
-4.85
-4.02
-3.54
-3.37
-3.35
-3.28
-3.00
-2.40
-1.55
-0.65
0.11
0.56
0.68
0.57
0.40
0.33
0.45
0.79
1.25
1.72
2.07
2.21
2.10
1.79
1.34
0.87
0.49
0.29
0.35
0.67
1.25
2.08
3.09
4.21
5.32
6.33
7.12
7.63
7.80
7.63
7.14
6.37
5.38
4.27
3.16
2.20
1.54
1.28
1.47
2.04
2.82
3.55
3.97
3.89
3.23
2.07
0.55
-1.18
-2.95
-4.65
-6.17
-7.40
-8.23
-8.57
-8.34
-7.53
-6.24
-4.64
-3.00
-1.58
-0.55
0.02
0.15
-0.08
-0.71
-1.79
-3.37
-5.35
-7.35
-8.81
-9.16
-8.12
-5.88
-3.05
-0.45
1.26
1.85
1.53
0.76
0.05
-0.34
-0.40
-0.27
-0.12
0.00
0.16
0.44
0.87
1.40
1.91
2.29
2.53
2.78
3.21
3.97
5.06
6.27
7.26
7.73
7.54
6.77
5.66
4.52
3.57
2.94
2.66
2.77
3.26
4.05
4.93
5.52
5.44
4.44
2.57
0.19
-2.20
-4.12
-5.35
-5.90
-6.04
-6.04
-6.13
-6.38
-6.73
-7.05
-7.21
-7.12
-6.73
-6.04
-5.17
-4.28
-3.63
-3.44
-3.82
-4.68
-5.76
-6.69
-7.18
-7.07
-6.43
-5.53
-4.74
-4.43
-4.90
-6.15
-7.86
-9.39
-9.96
-9.03
-6.50
-2.87
0.97
4.13
6.07
6.82
6.83
6.70
6.84
7.35
8.05
8.72
9.17
9.35
9.29
9.01
8.55
7.94
7.25
6.60
6.13
5.91
5.97
6.23
6.58
6.87
6.94
6.67
6.00
4.97
3.76
2.61
1.72
1.15
0.81
0.51
0.06
-0.55
-1.19
-1.66
-1.77
-1.50
-0.90
-0.06
0.97
2.12
3.28
4.22
4.66
4.34
3.24
1.58
-0.23
-1.79
-2.85
-3.40
-3.64
-3.78
-3.98
-4.22
-4.38
-4.31
-3.90
-3.11
-1.99
-0.61
0.96
2.62
4.23
5.63
6.66
7.29
7.60
7.82
8.17
8.73
9.40
9.87
9.87
9.25
8.14
6.79
5.51
4.46
3.66
3.07
2.66
2.46
2.45
2.54
2.46
1.92
0.72
-1.16
-3.47
-5.86
-7.98
-9.61
-10.71
-11.35
-11.66
-11.76
-11.73
-11.62
-11.49
-11.35
-11.22
-11.05
-10.79
-10.39
-9.83
-9.22
-8.67
-8.33
-8.21
-8.19
-8.00
-7.44
-6.41
-5.05
-3.63
-2.44
-1.70
-1.45
-1.62
-2.01
-2.36
-2.36
-1.74
-0.31
1.93
4.75
7.75
10.49
12.65
14.12
15.04
15.63
16.05
16.35
16.40
16.03
15.13
13.68
11.73
9.41
6.85
4.22
1.72
-0.40
-1.97
-2.92
-3.38
-3.63
-3.98
-4.64
-5.61
-6.71
-7.72
-8.47
-8.92
-9.13
-9.17
-9.06
-8.78
-8.26
-7.53
-6.68
-5.83
-5.10
-4.54
-4.13
-3.83
-3.63
-3.58
-3.70
-4.00
-4.40
-4.76
-4.90
-4.72
-4.20
-3.44
-2.58
-1.75
-1.08
-0.60
-0.32
-0.22
-0.27
-0.36
-0.36
-0.09
0.55
1.53
2.68
3.73
4.50
4.98
5.37
5.91
6.75
7.78
8.70
9.13
8.90
8.05
6.86
5.68
4.72
4.03
3.54
3.14
2.79
2.48
2.15
1.73
1.09
0.16
-1.02
-2.29
-3.45
-4.31
-4.76
-4.79
-4.49
-3.97
-3.35
-2.79
-2.40
-2.26
-2.38
-2.69
-3.10
-3.53
-4.01
-4.59
-5.32
-6.17
-7.03
-7.67
-7.87
-7.45
-6.41
-4.91
-3.20
-1.58
-0.26
0.65
1.18
1.46
1.65
1.91
2.38
3.14
4.19
5.46
6.82
8.10
9.13
9.80
10.07
9.96
9.50
8.74
7.73
6.58
5.42
4.38
3.55
2.99
2.68
2.59
2.74
3.14
3.84
4.84
6.01
7.13
7.82
7.72
6.59
4.39
1.33
-2.16
-5.60
-8.49
-10.49
-11.42
-11.33
-10.42
-9.06
-7.65
-6.54
-5.94
-5.87
-6.20
-6.71
-7.23
-7.71
-8.17
-8.66
-9.13
-9.44
-9.36
-8.70
-7.38
-5.55
-3.48
-1.47
0.23
1.56
2.58
3.41
4.10
4.62
4.88
4.86
4.65
4.53
4.86
5.93
7.82
10.32
12.98
15.29
16.81
17.35
16.91
15.68
13.87
11.69
9.31
6.89
4.63
2.75
1.41
0.69
0.52
0.70
0.95
1.02
0.70
-0.12
-1.36
-2.86
-4.38
-5.69
-6.72
-7.52
-8.22
-8.89
-9.52
-9.93
-9.95
-9.51
-8.71
-7.84
-7.23
-7.03
-7.23
-7.61
-7.93
-8.12
-8.24
-8.51
-9.07
-9.85
-10.56
-10.83
-10.41
-9.31
-7.84
-6.39
-5.28
-4.58
-4.11
-3.61
-2.89
-1.97
-0.97
-0.04
0.82
1.71
2.78
4.15
5.77
7.53
9.31
11.02
12.65
14.15
15.40
16.19
16.31
15.66
14.29
12.41
10.30
8.23
6.35
4.77
3.60
2.93
2.85
3.32
4.14
4.88
5.06
4.25
2.33
-0.46
-3.61
-6.48
-8.64
-9.90
-10.39
-10.37
-10.12
-9.80
-9.43
-9.02
-8.56
-8.08
-7.58
-7.05
-6.49
-5.95
-5.54
-5.38
-5.54
-5.92
-6.32
-6.49
-6.27
-5.65
-4.75
-3.77
-2.88
-2.17
-1.72
-1.53
-1.55
-1.70
-1.83
-1.75
-1.34
-0.54
0.63
2.08
3.72
5.44
7.16
8.80
10.29
11.59
12.66
13.48
14.03
14.23
13.94
13.10
11.70
9.90
8.00
6.36
5.27
4.84
4.93
5.19
5.20
4.57
3.10
0.84
-1.98
-4.99
-7.78
-10.02
-11.53
-12.25
-12.22
-11.54
-10.34
-8.75
-6.98
-5.30
-4.00
-3.26
-3.12
-3.43
-3.90
-4.28
-4.47
-4.52
-4.58
-4.70
-4.83
-4.75
-4.27
-3.34
-2.15
-1.05
-0.37
-0.34
-0.91
-1.88
-2.93
-3.81
-4.34
-4.44
-4.09
-3.31
-2.19
-0.83
0.65
2.10
3.45
4.68
5.84
6.98
8.13
9.26
10.33
11.27
12.05
12.56
12.70
12.36
11.47
10.11
8.47
6.82
5.41
4.37
3.64
3.04
2.33
1.32
-0.09
-1.80
-3.65
-5.41
-6.85
-7.81
-8.21
-8.09
-7.57
-6.86
-6.13
-5.55
-5.19
-5.04
-4.99
-4.86
-4.44
-3.64
-2.53
-1.45
-0.85
-1.16
-2.53
-4.73
-7.16
-9.00
-9.54
-8.43
-5.83
-2.32
1.32
4.35
6.28
6.96
6.53
5.29
3.63
1.88
0.32
-0.87
-1.57
-1.70
-1.27
-0.31
1.10
2.86
4.86
6.95
8.97
10.76
12.17
13.08
13.43
13.18
12.34
10.95
9.18
7.26
5.46
4.06
3.17
2.74
2.55
2.25
1.57
0.32
-1.51
-3.76
-6.19
-8.48
-10.27
-11.32
-11.52
-10.99
-10.04
-9.03
-8.20
-7.60
-7.14
-6.68
-6.18
-5.66
-5.20
-4.75
-4.22
-3.49
-2.60
-1.80
-1.45
-1.81
-2.84
-4.14
-5.09
-5.15
-4.12
-2.22
-0.03
1.83
2.93
3.18
2.77
2.02
1.22
0.48
-0.14
-0.57
-0.72
-0.46
0.25
1.34
2.58
3.74
4.71
5.50
6.27
7.17
8.20
9.20
9.93
10.11
9.65
8.63
7.30
5.97
4.86
4.05
3.50
3.12
2.83
2.62
2.48
2.35
2.11
1.59
0.71
-0.47
-1.79
-2.97
-3.83
-4.27
-4.37
-4.28
-4.17
-4.18
-4.39
-4.80
-5.35
-5.91
-6.32
-6.45
-6.26
-5.83
-5.38
-5.13
-5.24
-5.73
-6.42
-7.01
-7.22
-6.85
-5.89
-4.50
-2.92
-1.43
-0.22
0.64
1.16
1.40
1.44
1.32
1.08
0.79
0.58
0.62
1.04
1.91
3.14
4.56
5.95
7.17
8.15
8.91
9.48
9.86
9.98
9.74
9.10
8.12
6.93
5.68
4.51
3.48
2.61
1.91
1.38
1.05
0.93
0.96
1.07
1.10
0.94
0.51
-0.19
-1.09
-2.09
-3.08
-4.00
-4.87
-5.75
-6.68
-7.64
-8.50
-9.07
-9.22
-8.94
-8.33
-7.58
-6.80
-6.02
-5.17
-4.22
-3.24
-2.45
-2.07
-2.23
-2.81
-3.51
-3.92
-3.74
-2.82
-1.27
0.63
2.56
4.21
5.38
5.93
5.85
5.21
4.13
2.75
1.24
-0.20
-1.35
-1.99
-1.95
-1.20
0.08
1.59
3.01
4.11
4.88
5.42
5.86
6.25
6.53
6.54
6.21
5.53
4.61
3.56
2.48
1.43
0.44
-0.42
-1.02
-1.24
-1.05
-0.53
0.17
0.86
1.39
1.71
1.83
1.79
1.63
1.35
0.97
0.46
-0.18
-0.94
-1.82
-2.81
-3.88
-4.99
-6.05
-6.98
-7.67
-7.99
-7.87
-7.25
-6.16
-4.72
-3.15
-1.71
-0.61
0.05
0.32
0.31
0.18
0.07
0.01
0.00
0.01
0.02
0.09
0.27
0.58
0.92
1.15
1.08
0.61
-0.25
-1.35
-2.45
-3.36
-3.93
-4.15
-4.06
-3.72
-3.15
-2.35
-1.31
-0.02
1.43
2.98
4.52
5.95
7.21
8.24
9.01
9.50
9.70
9.58
9.15
8.40
7.37
6.16
4.91
3.79
2.94
2.39
2.08
1.82
1.49
1.02
0.47
-0.07
-0.58
-1.11
-1.76
-2.58
-3.50
-4.34
-4.91
-5.09
-4.93
-4.60
-4.29
-4.11
-4.03
-3.94
-3.77
-3.47
-3.06
-2.58
-2.04
-1.46
-0.90
-0.50
-0.44
-0.84
-1.67
-2.69
-3.54
-3.89
-3.57
-2.62
-1.33
-0.06
0.85
1.20
0.97
0.28
-0.66
-1.66
-2.52
-3.12
-3.36
-3.18
-2.57
-1.58
-0.32
1.07
2.47
3.80
5.01
6.11
7.07
7.87
8.43
8.67
8.55
8.07
7.32
6.45
5.64
5.04
4.72
4.65
4.75
4.90
4.99
4.95
4.68
4.08
3.03
1.47
-0.53
-2.75
-4.89
-6.62
-7.72
-8.12
-7.89
-7.20
-6.25
-5.23
-4.25
-3.42
-2.78
-2.37
-2.18
-2.15
-2.21
-2.31
-2.45
-2.69
-3.12
-3.78
-4.58
-5.29
-5.61
-5.31
-4.34
-2.87
-1.24
0.21
1.25
1.83
2.07
2.13
2.15
2.21
2.37
2.63
3.07
3.73
4.62
5.69
6.83
7.96
9.08
10.27
11.60
13.04
14.36
15.16
15.04
13.79
11.54
8.73
5.97
3.71
2.12
1.04
0.21
-0.61
-1.43
-2.07
-2.35
-2.23
-1.94
-1.86
-2.38
-3.67
-5.60
-7.80
-9.79
-11.20
-11.89
-11.90
-11.45
-10.77
-10.00
-9.22
-8.43
-7.62
-6.87
-6.24
-5.82
-5.58
-5.42
-5.22
-4.87
-4.42
-4.01
-3.83
-3.99
-4.46
-5.01
-5.34
-5.15
-4.30
-2.89
-1.18
0.48
1.79
2.60
2.97
3.02
2.92
2.78
2.64
2.52
2.50
2.68
3.19
4.08
5.26
6.53
7.64
8.42
8.82
8.90
8.74
8.39
7.84
7.10
6.24
5.41
4.86
4.80
5.27
6.15
7.15
7.92
8.24
8.02
7.34
6.30
4.92
3.14
0.86
-1.95
-5.15
-8.39
-11.21
-13.18
-14.02
-13.70
-12.45
-10.65
-8.69
-6.90
-5.44
-4.32
-3.47
-2.77
-2.19
-1.71
-1.36
-1.14
-1.09
-1.22
-1.58
-2.14
-2.80
-3.40
-3.74
-3.67
-3.17
-2.33
-1.35
-0.41
0.34
0.82
1.02
0.94
0.58
-0.03
-0.80
-1.55
-2.07
-2.13
-1.64
-0.63
0.66
1.96
3.00
3.70
4.10
4.43
4.88
5.57
6.46
7.38
8.05
8.24
7.83
6.86
5.52
4.11
2.92
2.11
1.75
1.75
1.95
2.20
2.34
2.28
1.99
1.48
0.77
-0.08
-1.00
-1.96
-2.86
-3.60
-4.11
-4.33
-4.25
-3.98
-3.62
-3.28
-3.04
-2.90
-2.84
-2.83
-2.80
-2.72
-2.54
-2.25
-1.92
-1.63
-1.45
-1.41
-1.42
-1.37
-1.14
-0.70
-0.11
0.49
0.90
0.94
0.45
-0.59
-2.03
-3.52
-4.68
-5.16
-4.90
-4.10
-3.11
-2.28
-1.70
-1.24
-0.64
0.34
1.76
3.50
5.35
7.10
8.61
9.79
10.59
10.94
10.82
10.24
9.26
8.00
6.63
5.32
4.18
3.32
2.75
2.40
2.13
1.79
1.23
0.40
-0.69
-1.95
-3.26
-4.50
-5.56
-6.38
-6.96
-7.34
-7.56
-7.68
-7.74
-7.70
-7.56
-7.34
-7.05
-6.75
-6.41
-5.95
-5.28
-4.35
-3.23
-2.11
-1.26
-0.86
-0.91
-1.23
-1.50
-1.42
-0.78
0.37
1.83
3.27
4.40
5.01
5.01
4.43
3.35
1.92
0.33
-1.21
-2.44
-3.15
-3.20
-2.62
-1.58
-0.31
0.96
2.10
3.08
3.91
4.62
5.16
5.52
5.72
5.82
5.90
5.99
5.97
5.70
5.03
3.98
2.73
1.62
0.89
0.67
0.85
1.20
1.48
1.57
1.46
1.25
1.04
0.82
0.55
0.11
-0.53
-1.33
-2.17
-2.90
-3.41
-3.68
-3.83
-3.97
-4.24
-4.67
-5.22
-5.80
-6.30
-6.63
-6.74
-6.58
-6.12
-5.33
-4.25
-3.02
-1.89
-1.13
-0.92
-1.29
-1.99
-2.64
-2.83
-2.29
-1.00
0.82
2.79
4.53
5.72
6.24
6.09
5.40
4.34
3.13
2.02
1.21
0.87
1.08
1.77
2.75
3.75
4.50
4.87
4.84
4.57
4.23
3.93
3.71
3.46
3.07
2.45
1.61
0.67
-0.21
-0.93
-1.42
-1.73
-1.96
-2.22
-2.62
-3.19
-3.91
-4.70
-5.49
-6.20
-6.81
-7.27
-7.52
-7.49
-7.11
-6.40
-5.49
-4.58
-3.85
-3.38
-3.07
-2.74
-2.21
-1.41
-0.43
0.55
1.37
1.97
2.38
2.63
2.74
2.68
2.47
2.18
2.02
2.18
2.74
3.60
4.48
5.09
5.20
4.83
4.14
3.37
2.68
2.13
1.67
1.21
0.74
0.29
-0.08
-0.32
-0.48
-0.63
-0.84
-1.12
-1.44
-1.74
-1.94
-2.03
-2.01
-1.91
-1.73
-1.45
-1.07
-0.57
0.02
0.63
1.15
1.48
1.55
1.34
0.92
0.39
-0.14
-0.58
-0.90
-1.08
-1.16
-1.15
-1.09
-0.97
-0.78
-0.53
-0.24
0.02
0.23
0.35
0.42
0.46
0.50
0.54
0.51
0.32
-0.05
-0.57
-1.10
-1.47
-1.50
-1.06
-0.15
1.10
2.43
3.51
4.10
4.07
3.54
2.75
1.99
1.45
1.18
1.06
0.94
0.72
0.42
0.17
0.09
0.22
0.50
0.81
1.00
1.01
0.82
0.45
-0.09
-0.80
-1.65
-2.55
-3.30
-3.71
-3.67
-3.19
-2.40
-1.46
-0.48
0.51
1.45
2.26
2.82
3.05
2.97
2.69
2.38
2.12
1.89
1.55
1.00
0.23
-0.63
-1.36
-1.78
-1.84
-1.63
-1.31
-1.05
-0.96
-1.07
-1.32
-1.67
-2.08
-2.47
-2.77
-2.86
-2.57
-1.83
-0.66
0.70
1.95
2.79
3.11
2.99
2.67
2.39
2.23
2.10
1.84
1.32
0.60
-0.15
-0.71
-0.97
-0.99
-0.96
-1.12
-1.55
-2.18
-2.76
-2.99
-2.64
-1.59
0.11
2.24
4.44
6.29
7.41
7.62
6.97
5.78
4.48
3.45
2.86
2.68
2.66
2.55
2.20
1.61
0.92
0.32
-0.09
-0.30
-0.42
-0.59
-0.86
-1.21
-1.48
-1.52
-1.23
-0.68
-0.02
0.50
0.71
0.54
0.09
-0.45
-0.85
-0.97
-0.82
-0.56
-0.40
-0.45
-0.63
-0.73
-0.44
0.39
1.75
3.48
5.37
7.26
8.98
10.38
11.29
11.57
11.30
10.71
10.17
9.96
10.04
10.05
9.51
8.03
5.62
2.60
-0.46
-3.05
-4.88
-5.94
-6.48
-6.84
-7.28
-7.93
-8.72
-9.47
-9.98
-10.17
-10.10
-10.08
-10.36
-11.07
-12.18
-13.52
-14.93
-16.31
-17.67
-19.07
-20.72
-22.74
-25.08
-27.54
-29.76
-31.37
-32.05
-31.78
-30.65
-29.01
-27.02
-24.60
-21.59
-18.00
-14.19
-10.87
-8.84
-7.03
-4.18
0.95
8.81
18.78
29.28
38.45
44.75
47.22
46.15
42.51
37.75
33.11
29.55
26.81
24.34
21.51
17.57
12.26
5.76
-1.35
-8.34
-14.55
-19.43
-22.45
-21.39
-15.67
-6.58
2.81
9.18
10.50
6.94
0.71
-5.07
-8.00
-7.70
-5.38
-2.86
-1.53
-1.16
-0.92
-0.05
1.66
3.72
5.16
5.37
4.47
3.22
2.54
2.94
4.34
6.18
7.85
8.64
8.32
7.17
5.78
4.78
4.48
4.79
5.35
5.75
5.65
5.02
4.12
3.28
2.77
2.60
2.63
2.62
2.43
2.04
1.52
1.05
0.70
0.49
0.25
-0.18
-0.91
-1.87
-2.87
-3.69
-4.18
-4.34
-4.36
-4.41
-4.62
-4.92
-5.13
-5.06
-4.66
-4.02
-3.32
-2.73
-2.36
-2.18
-2.14
-2.15
-2.16
-2.15
-2.11
-1.99
-1.74
-1.31
-0.72
-0.07
0.50
0.86
0.95
0.81
0.57
0.40
0.42
0.63
0.96
1.26
1.45
1.48
1.39
1.29
1.27
1.38
1.64
1.99
2.34
2.56
2.56
2.31
1.87
1.39
1.00
0.80
0.82
1.00
1.25
1.50
1.73
1.97
2.26
2.63
3.05
3.47
3.86
4.21
4.59
5.02
5.55
6.14
6.76
7.33
7.86
8.38
9.02
9.91
11.15
12.74
14.53
16.25
17.56
18.14
17.82
16.63
14.77
12.54
10.23
8.02
6.02
4.23
2.57
0.95
-0.76
-2.66
-4.84
-7.34
-10.11
-13.04
-15.95
-18.60
-20.78
-22.26
-22.89
-22.67
-21.75
-20.42
-19.05
-17.94
-17.24
-16.87
-16.64
-16.28
-15.59
-14.47
-12.94
-11.12
-9.22
-7.47
-6.08
-5.22
-4.94
-5.12
-5.50
-5.78
-5.73
-5.28
-4.53
-3.68
-2.88
-2.20
-1.66
-1.23
-0.94
-0.87
-1.03
-1.38
-1.76
-2.00
-1.98
-1.71
-1.28
-0.68
0.19
1.52
3.35
5.49
7.50
8.94
9.65
9.86
10.06
10.70
11.78
12.85
13.21
12.33
10.18
7.21
4.10
1.39
-0.77
-2.51
-4.03
-5.37
-6.37
-6.85
-6.79
-6.43
-6.16
-6.30
-6.92
-7.75
-8.38
-8.40
-7.65
-6.24
-4.51
-2.82
-1.44
-0.43
0.30
0.89
1.45
1.93
2.21
2.21
1.88
1.35
0.77
0.29
-0.05
-0.28
-0.49
-0.70
-0.89
-1.02
-1.12
-1.29
-1.65
-2.24
-2.95
-3.57
-3.91
-3.89
-3.61
-3.27
-3.04
-2.96
-2.94
-2.82
-2.52
-2.01
-1.35
-0.51
0.56
1.91
3.44
4.83
5.65
5.56
4.50
2.80
1.00
-0.34
-0.94
-0.85
-0.38
0.13
0.46
0.62
0.70
0.82
1.00
1.15
1.14
0.91
0.49
0.03
-0.35
-0.55
-0.55
-0.40
-0.20
-0.01
0.16
0.32
0.51
0.71
0.87
0.89
0.69
0.29
-0.22
-0.65
-0.81
-0.61
-0.02
0.81
1.70
2.43
2.80
2.66
1.98
0.90
-0.36
-1.48
-2.20
-2.44
-2.30
-2.00
-1.76
-1.70
-1.79
-1.92
-1.98
-1.97
-1.91
-1.81
-1.58
-1.09
-0.24
0.94
2.22
3.23
3.67
3.42
2.63
1.70
1.00
0.79
1.10
1.77
2.56
3.30
3.88
4.27
4.48
4.50
4.34
4.02
3.60
3.14
2.68
2.24
1.84
1.50
1.26
1.17
1.19
1.27
1.29
1.18
0.91
0.47
-0.12
-0.86
-1.76
-2.80
-3.88
-4.82
-5.43
-5.55
-5.20
-4.49
-3.59
-2.70
-1.93
-1.31
-0.80
-0.35
0.10
0.56
1.00
1.35
1.55
1.55
1.36
1.07
0.82
0.73
0.82
1.06
1.34
1.53
1.58
1.51
1.42
1.41
1.51
1.68
1.84
1.89
1.80
1.61
1.39
1.21
1.10
1.04
1.00
0.96
0.94
0.98
1.12
1.36
1.66
1.97
2.21
2.34
2.30
2.10
1.81
1.56
1.49
1.70
2.18
2.83
3.41
3.69
3.49
2.80
1.75
0.61
-0.34
-0.90
-1.04
-0.88
-0.65
-0.53
-0.69
-1.14
-1.85
-2.74
-3.66
-4.48
-5.05
-5.29
-5.17
-4.76
-4.19
-3.62
-3.15
-2.82
-2.57
-2.35
-2.08
-1.76
-1.43
-1.17
-1.06
-1.12
-1.33
-1.57
-1.71
-1.69
-1.50
-1.21
-0.92
-0.72
-0.63
-0.61
-0.58
-0.49
-0.27
0.11
0.63
1.24
1.85
2.32
2.55
2.52
2.26
1.90
1.56
1.31
1.17
1.12
1.14
1.26
1.50
1.89
2.38
2.84
3.17
3.28
3.21
3.05
2.90
2.80
2.72
2.54
2.16
1.55
0.77
-0.01
-0.64
-0.99
-1.06
-0.94
-0.81
-0.83
-1.08
-1.51
-1.96
-2.25
-2.27
-2.03
-1.70
-1.46
-1.43
-1.56
-1.69
-1.63
-1.31
-0.83
-0.42
-0.31
-0.56
-1.03
-1.42
-1.48
-1.14
-0.48
0.27
0.92
1.42
1.81
2.16
2.47
2.64
2.55
2.15
1.48
0.66
-0.15
-0.86
-1.42
-1.88
-2.27
-2.64
-3.00
-3.38
-3.72
-3.92
-3.78
-3.11
-1.82
-0.01
2.00
3.85
5.24
6.09
6.49
6.63
6.61
6.43
5.99
5.27
4.33
3.36
2.54
1.95
1.49
0.94
0.16
-0.90
-2.09
-3.18
-3.95
-4.26
-4.14
-3.68
-3.00
-2.19
-1.31
-0.42
0.46
1.23
1.79
2.09
2.14
2.02
1.82
1.63
1.46
1.30
1.10
0.83
0.50
0.13
-0.26
-0.63
-0.95
-1.16
-1.20
-1.03
-0.66
-0.17
0.32
0.70
0.93
1.05
1.13
1.27
1.57
2.02
2.61
3.28
3.97
4.60
5.07
5.28
5.15
4.67
3.96
3.22
2.66
2.44
2.59
3.01
3.54
3.96
4.10
3.77
2.93
1.61
0.03
-1.50
-2.67
-3.24
-3.16
-2.57
-1.69
-0.80
-0.12
0.25
0.32
0.19
0.07
0.18
0.66
1.49
2.50
3.40
3.91
3.91
3.48
2.84
2.32
2.19
2.61
3.52
4.67
5.66
6.03
5.41
3.70
1.14
-1.73
-4.30
-6.08
-6.89
-6.80
-6.10
-5.10
-4.02
-3.02
-2.22
-1.73
-1.67
-2.01
-2.64
-3.30
-3.76
-3.89
-3.73
-3.49
-3.40
-3.60
-4.05
-4.59
-4.95
-4.96
-4.57
-3.88
-3.15
-2.61
-2.39
-2.44
-2.55
-2.42
-1.86
-0.89
0.32
1.45
2.25
2.62
2.63
2.40
2.03
1.52
0.79
-0.17
-1.22
-2.09
-2.52
-2.38
-1.80
-1.10
-0.61
-0.49
-0.68
-0.92
-0.95
-0.70
-0.28
0.05
0.10
-0.16
-0.57
-0.89
-0.92
-0.61
-0.10
0.45
0.87
1.09
1.14
1.13
1.13
1.21
1.40
1.65
1.90
2.09
2.17
2.14
2.03
1.89
1.78
1.70
1.65
1.57
1.40
1.08
0.60
0.03
-0.53
-0.93
-1.09
-1.01
-0.79
-0.57
-0.48
-0.55
-0.77
-1.09
-1.49
-2.01
-2.62
-3.25
-3.75
-3.96
-3.83
-3.40
-2.83
-2.28
-1.81
-1.43
-1.09
-0.81
-0.60
-0.49
-0.46
-0.40
-0.19
0.24
0.84
1.46
1.89
2.01
1.79
1.34
0.84
0.45
0.25
0.27
0.44
0.67
0.88
0.96
0.82
0.46
-0.09
-0.72
-1.28
-1.63
-1.73
-1.59
-1.33
-1.05
-0.83
-0.69
-0.60
-0.54
-0.47
-0.38
-0.26
-0.08
0.16
0.43
0.63
0.71
0.65
0.53
0.46
0.58
0.90
1.34
1.76
1.97
1.88
1.50
0.98
0.49
0.17
0.04
0.05
0.10
0.11
0.03
-0.14
-0.36
-0.61
-0.86
-1.11
-1.34
-1.48
-1.45
-1.23
-0.85
-0.42
-0.07
0.08
0.02
-0.18
-0.42
-0.57
-0.56
-0.38
-0.06
0.36
0.80
1.23
1.61
1.91
2.16
2.37
2.57
2.73
2.81
2.73
2.46
2.03
1.57
1.21
1.01
0.99
1.09
1.22
1.33
1.41
1.49
1.53
1.49
1.26
0.81
0.16
-0.57
-1.16
-1.48
-1.45
-1.17
-0.80
-0.50
-0.39
-0.48
-0.72
-1.04
-1.36
-1.60
-1.71
-1.64
-1.35
-0.89
-0.33
0.21
0.63
0.88
0.97
0.91
0.73
0.44
0.05
-0.35
-0.66
-0.74
-0.53
-0.10
0.39
0.72
0.74
0.41
-0.14
-0.75
-1.24
-1.52
-1.59
-1.47
-1.23
-0.88
-0.43
0.10
0.63
1.12
1.52
1.84
2.08
2.26
2.38
2.42
2.33
2.13
1.82
1.44
1.01
0.54
0.06
-0.41
-0.78
-0.97
-0.92
-0.63
-0.18
0.32
0.77
1.11
1.30
1.38
1.39
1.36
1.34
1.35
1.39
1.44
1.46
1.42
1.34
1.32
1.47
1.84
2.40
3.01
3.48
3.66
3.47
2.92
2.08
1.10
0.14
-0.60
-0.98
-0.95
-0.61
-0.15
0.19
0.27
0.11
-0.14
-0.29
-0.24
-0.01
0.28
0.50
0.54
0.37
0.02
-0.45
-1.01
-1.61
-2.26
-2.92
-3.58
-4.19
-4.69
-5.01
-5.14
-5.06
-4.80
-4.41
-3.94
-3.43
-2.85
-2.17
-1.31
-0.27
0.93
2.18
3.31
4.15
4.54
4.46
4.02
3.42
2.91
2.61
2.50
2.45
2.26
1.83
1.19
0.52
-0.01
-0.31
-0.46
-0.64
-1.00
-1.57
-2.24
-2.78
-3.03
-2.95
-2.66
-2.34
-2.15
-2.12
-2.17
-2.20
-2.13
-1.98
-1.77
-1.55
-1.33
-1.11
-0.88
-0.65
-0.46
-0.34
-0.33
-0.41
-0.58
-0.82
-1.08
-1.30
-1.40
-1.28
-0.88
-0.24
0.58
1.43
2.15
2.62
2.75
2.58
2.20
1.74
1.36
1.11
0.97
0.88
0.74
0.53
0.28
0.08
-0.03
-0.03
0.01
0.05
0.06
0.03
0.02
0.04
0.06
0.05
-0.03
-0.17
-0.34
-0.47
-0.54
-0.51
-0.42
-0.28
-0.14
-0.06
-0.10
-0.33
-0.74
-1.29
-1.80
-2.12
-2.15
-1.92
-1.56
-1.26
-1.15
-1.26
-1.48
-1.68
-1.79
-1.78
-1.71
-1.65
-1.60
-1.52
-1.30
-0.93
-0.49
-0.17
-0.12
-0.41
-0.88
-1.27
-1.29
-0.81
0.09
1.13
2.02
2.55
2.71
2.63
2.52
2.49
2.52
2.55
2.45
2.24
1.99
1.82
1.82
1.95
2.10
2.09
1.82
1.29
0.62
-0.02
-0.52
-0.82
-0.94
-0.93
-0.84
-0.70
-0.55
-0.40
-0.28
-0.17
-0.06
0.04
0.13
0.15
0.08
-0.11
-0.35
-0.56
-0.64
-0.57
-0.38
-0.17
-0.05
-0.04
-0.07
0.01
0.32
0.88
1.58
2.26
2.80
3.18
3.52
3.96
4.58
5.33
6.05
6.60
6.93
7.15
7.46
8.07
9.06
10.39
11.91
13.41
14.69
15.51
15.61
14.75
12.78
9.72
5.85
1.66
-2.31
-5.64
-8.11
-9.67
-10.43
-10.52
-10.04
-9.17
-8.14
-7.27
-6.82
-6.93
-7.54
-8.44
-9.33
-10.01
-10.39
-10.50
-10.46
-10.33
-10.10
-9.64
-8.80
-7.44
-5.61
-3.52
-1.52
0.03
0.93
1.13
0.84
0.34
-0.10
-0.35
-0.41
-0.40
-0.45
-0.64
-0.97
-1.36
-1.68
-1.82
-1.70
-1.37
-0.89
-0.37
0.13
0.58
0.93
1.09
0.95
0.42
-0.45
-1.47
-2.38
-2.94
-3.08
-2.88
-2.51
-2.17
-1.93
-1.79
-1.73
-1.75
-1.91
-2.20
-2.52
-2.66
-2.43
-1.77
-0.76
0.40
1.48
2.31
2.81
2.95
2.75
2.19
1.37
0.48
-0.17
-0.31
0.11
0.84
1.35
1.14
0.00
-1.82
-3.67
-4.78
-4.62
-3.08
-0.55
2.33
4.87
6.54
7.05
6.32
4.52
2.08
-0.25
-1.47
-0.70
2.51
7.84
14.23
20.17
24.27
25.78
24.76
21.93
18.24
14.43
10.86
7.67
5.07
3.44
3.25
4.71
7.45
10.51
12.60
12.66
10.34
6.16
1.32
-2.93
-5.79
-7.19
-7.63
-7.80
-8.07
-8.42
-8.51
-7.98
-6.83
-5.31
-3.74
-2.32
-1.45
-1.99
-5.11
-11.60
-21.11
-31.80
-40.71
-44.83
-42.44
-33.91
-21.74
-9.54
-0.68
2.88
1.12
-4.20
-10.29
-14.46
-15.09
-12.20
-7.14
-1.77
2.43
4.92
6.21
7.14
8.16
9.05
9.03
7.47
4.41
0.72
-2.41
-3.96
-3.49
-1.54
1.44
4.04
4.46
1.74
-3.41
-8.97
-12.83
-13.81
-12.08
-8.73
-5.23
-2.54
-0.88
-0.05
0.08
-0.81
-2.55
-4.77
-6.62
-6.90
-4.33
1.80
11.14
22.08
31.34
36.09
35.00
28.72
19.36
9.55
1.38
-4.12
-7.28
-8.88
-9.48
-9.37
-8.73
-7.77
-6.80
-6.08
-5.61
-5.09
-4.11
-2.28
0.37
3.37
6.05
7.88
8.48
7.97
6.84
5.59
4.59
3.91
3.50
3.31
3.42
3.91
4.74
5.65
6.22
6.10
5.19
3.68
2.04
0.79
0.34
0.84
2.22
4.18
6.37
8.45
10.19
11.47
12.28
12.67
12.78
12.68
12.41
11.87
10.93
9.46
7.41
4.89
2.09
-0.72
-3.31
-5.48
-7.11
-8.06
-8.25
-7.67
-6.50
-5.08
-3.82
-3.06
-2.90
-3.18
-3.54
-3.64
-3.32
-2.70
-2.07
-1.72
-1.75
-2.02
-2.24
-2.10
-1.48
-0.45
0.70
1.71
2.42
2.81
3.05
3.26
3.54
3.90
4.31
4.77
5.32
6.03
6.92
8.00
9.21
10.47
11.73
12.98
14.21
15.41
16.60
17.85
19.23
20.78
22.47
24.18
25.78
27.24
28.63
30.08
31.63
33.14
34.21
34.41
33.45
31.35
28.41
24.97
21.22
17.09
12.41
7.12
1.52
-3.75
-7.96
-10.61
-11.66
-11.54
-10.86
-10.15
-9.65
-9.33
-9.05
-8.70
-8.32
-7.99
-7.76
-7.60
-7.37
-6.97
-6.32
-5.46
-4.45
-3.34
-2.19
-1.06
-0.06
0.66
0.95
0.71
-0.08
-1.35
-2.94
-4.67
-6.33
-7.73
-8.68
-9.02
-8.65
-7.53
-5.69
-3.32
-0.70
1.85
4.02
5.67
6.80
7.47
7.71
7.46
6.63
5.21
3.40
1.50
-0.20
-1.65
-3.17
-5.25
-8.33
-12.46
-17.26
-22.03
-26.07
-28.94
-30.61
-31.35
-31.48
-31.24
-30.69
-29.80
-28.59
-27.18
-25.82
-24.73
-23.98
-23.43
-22.78
-21.77
-20.31
-18.56
-16.81
-15.38
-14.40
-13.83
-13.45
-13.05
-12.61
-12.29
-12.40
-13.15
-14.54
-16.28
-17.87
-18.79
-18.72
-17.53
-15.34
-12.39
-8.94
-5.26
-1.65
1.58
4.12
5.84
6.83
7.46
8.18
9.44
11.41
13.97
16.75
19.35
21.50
23.27
25.04
27.33
30.48
34.38
38.31
41.19
41.98
40.13
35.82
29.87
23.30
16.98
11.29
6.10
1.06
-4.16
-9.60
-15.01
-19.95
-24.03
-27.00
-28.87
-29.81
-30.08
-29.92
-29.42
-28.56
-27.29
-25.63
-23.77
-22.01
-20.62
-19.71
-19.13
-18.54
-17.64
-16.33
-14.82
-13.49
-12.75
-12.82
-13.59
-14.75
-15.87
-16.60
-16.77
-16.36
-15.49
-14.29
-12.95
-11.65
-10.57
-9.84
-9.51
-9.53
-9.75
-9.97
-9.96
-9.56
-8.72
-7.56
-6.33
-5.32
-4.72
-4.55
-4.61
-4.61
-4.31
-3.66
-2.92
-2.53
-2.93
-4.30
-6.43
-8.86
-11.01
-12.52
-13.40
-13.93
-14.51
-15.38
-16.52
-17.71
-18.68
-19.26
-19.46
-19.33
-18.92
-18.23
-17.36
-16.53
-16.16
-16.69
-18.41
-21.11
-24.06
-26.08
-25.92
-22.75
-16.50
-8.02
1.18
9.39
15.28
18.24
18.45
16.67
13.88
10.96
8.53
6.94
6.37
6.80
8.09
9.94
11.95
13.76
15.16
16.11
16.70
17.02
17.06
16.70
15.85
14.53
12.90
11.28
9.95
9.08
8.67
8.65
8.87
9.19
9.43
9.42
9.02
8.18
7.03
5.89
5.12
5.03
5.67
6.86
8.28
9.58
10.56
11.19
11.59
11.91
12.20
12.45
12.56
12.46
12.19
11.85
11.58
11.46
11.42
11.32
11.01
10.41
9.54
8.53
7.52
6.57
5.66
4.70
3.62
2.44
1.31
0.42
-0.06
-0.08
0.30
0.93
1.66
2.39
3.05
3.61
4.05
4.36
4.56
4.70
4.83
4.95
5.01
4.95
4.75
4.47
4.25
4.24
4.48
4.88
5.20
5.19
4.68
3.73
2.52
1.32
0.35
-0.35
-0.84
-1.27
-1.69
-2.06
-2.21
-1.95
-1.20
0.04
1.59
3.24
4.80
6.16
7.27
8.16
8.85
9.35
9.65
9.72
9.54
9.13
8.50
7.73
6.85
5.89
4.88
3.85
2.80
1.78
0.81
-0.12
-1.05
-2.07
-3.23
-4.59
-6.11
-7.65
-9.04
-10.10
-10.73
-10.88
-10.54
-9.72
-8.44
-6.74
-4.75
-2.67
-0.74
0.85
2.01
2.78
3.30
3.69
4.00
4.21
4.28
4.15
3.87
3.57
3.42
3.55
4.01
4.69
5.40
5.90
6.02
5.68
4.98
4.11
3.32
2.85
2.81
3.20
3.87
4.61
5.22
5.61
5.81
5.98
6.29
6.83
7.56
8.29
8.76
8.78
8.29
7.33
6.01
4.37
2.41
0.15
-2.34
-4.86
-7.10
-8.79
-9.85
-10.39
-10.69
-11.03
-11.51
-12.10
-12.65
-13.04
-13.21
-13.19
-12.97
-12.50
-11.69
-10.48
-8.93
-7.24
-5.62
-4.30
-3.35
-2.73
-2.29
-1.93
-1.55
-1.14
-0.69
-0.20
0.33
0.96
1.69
2.54
3.46
4.37
5.07
5.30
4.81
3.44
1.23
-1.53
-4.42
-6.96
-8.81
-9.85
-10.23
-10.30
-10.48
-11.14
-12.50
-14.52
-16.94
-19.32
-21.18
-22.10
-21.86
-20.38
-17.77
-14.17
-9.79
-4.84
0.43
5.73
10.82
15.50
19.70
23.45
26.78
29.65
31.94
33.47
34.10
33.84
32.93
31.71
30.52
29.60
28.97
28.48
27.98
27.36
26.60
25.74
24.79
23.71
22.45
21.05
19.65
18.46
17.66
17.28
17.18
17.13
16.92
16.46
15.82
15.12
14.50
14.03
13.77
13.77
13.99
14.27
14.28
13.65
12.10
9.64
6.53
3.25
0.18
-2.51
-4.92
-7.28
-9.81
-12.53
-15.28
-17.78
-19.69
-20.66
-20.32
-18.26
-14.26
-8.42
-1.35
5.88
12.00
16.02
17.53
16.96
15.31
13.75
13.16
13.86
15.66
18.03
20.41
22.30
23.36
23.49
22.83
21.82
21.06
21.06
21.95
23.39
24.65
25.02
24.18
22.36
20.18
18.21
16.62
15.06
12.82
9.30
4.34
-1.69
-8.02
-13.80
-18.44
-21.83
-24.24
-26.26
-28.54
-31.64
-35.86
-41.21
-47.29
-53.37
-58.50
-61.74
-62.34
-59.97
-54.76
-47.25
-38.19
-28.37
-18.39
-8.60
0.84
9.86
18.33
26.01
32.56
37.63
40.89
42.14
41.38
38.74
34.61
29.50
23.99
18.55
13.42
8.51
3.55
-1.84
-7.86
-14.49
-21.44
-28.21
-34.23
-38.93
-41.87
-42.83
-41.90
-39.48
-36.21
-32.80
-29.75
-27.29
-25.30
-23.49
-21.56
-19.30
-16.69
-13.81
-10.85
-7.99
-5.47
-3.51
-2.28
-1.77
-1.78
-1.85
-1.36
0.32
3.70
9.00
15.95
23.73
30.98
36.11
37.71
35.01
28.13
17.98
5.97
-6.41
-17.84
-27.29
-34.01
-37.62
-38.17
-36.21
-32.77
-29.02
-25.92
-23.98
-23.19
-23.21
-23.62
-24.10
-24.52
-24.84
-25.07
-25.16
-25.07
-24.78
-24.38
-24.06
-24.08
-24.65
-25.83
-27.45
-29.17
-30.63
-31.60
-32.08
-32.30
-32.56
-33.07
-33.83
-34.65
-35.27
-35.51
-35.26
-34.51
-33.24
-31.35
-28.75
-25.47
-21.73
-17.92
-14.39
-11.13
-7.60
-2.89
3.79
12.44
21.98
30.43
35.77
36.77
33.58
27.61
20.76
14.65
10.16
7.56
6.94
8.55
12.69
19.25
27.30
35.10
40.61
42.31
39.81
33.87
26.03
17.90
10.65
4.80
0.41
-2.73
-4.75
-5.73
-5.67
-4.58
-2.53
0.38
4.06
8.41
13.19
18.00
22.17
24.99
25.83
24.44
21.07
16.47
11.65
7.68
5.36
5.05
6.67
9.68
13.39
17.02
19.97
21.79
22.28
21.37
19.21
16.11
12.62
9.38
7.06
6.05
6.43
7.88
9.89
11.93
13.65
14.94
15.87
16.55
17.05
17.29
17.13
16.39
15.02
13.08
10.80
8.46
6.40
4.84
3.88
3.39
3.09
2.66
1.87
0.71
-0.57
-1.54
-1.75
-0.97
0.72
2.82
4.59
5.16
3.86
0.45
-4.74
-10.79
-16.49
-20.76
-23.05
-23.63
-23.44
-23.56
-24.63
-26.37
-27.72
-27.37
-24.41
-18.84
-11.54
-3.80
3.27
9.18
14.00
18.04
21.46
24.02
25.27
24.82
22.70
19.48
16.03
13.18
11.41
10.66
10.47
10.22
9.48
8.18
6.63
5.33
4.71
4.89
5.70
6.74
7.59
8.03
8.05
7.89
7.81
8.02
8.50
9.01
9.10
8.30
6.25
2.94
-1.23
-5.50
-8.93
-10.77
-10.69
-8.93
-6.11
-2.96
0.06
2.77
5.27
7.60
9.60
10.97
11.43
10.85
9.13
5.92
0.47
-8.09
-20.08
-34.50
-48.73
-59.20
-62.76
-57.95
-45.71
-28.92
-11.16
4.61
16.87
25.40
30.71
33.37
33.73
32.06
28.81
24.65
20.41
16.74
13.93
11.97
10.65
9.86
9.64
10.19
11.80
14.65
18.57
22.89
26.39
27.60
25.28
19.09
9.96
-0.04
-8.38
-12.93
-12.79
-8.44
-1.37
6.67
14.44
21.46
27.81
33.50
37.80
39.10
35.36
25.07
8.30
-12.83
-34.54
-52.69
-64.28
-68.56
-67.11
-62.90
-58.90
-56.89
-57.03
-58.25
-59.00
-57.95
-54.34
-47.90
-38.78
-27.41
-14.54
-1.28
11.07
21.26
28.43
32.37
33.54
32.90
31.55
30.44
30.08
30.49
31.25
31.64
30.98
28.79
24.99
19.97
14.44
9.29
5.28
2.85
1.97
2.26
3.14
4.00
4.43
4.23
3.45
2.28
1.05
0.14
-0.10
0.55
2.07
4.13
6.20
7.72
8.32
7.94
6.80
5.26
3.58
1.89
0.23
-1.37
-2.75
-3.62
-3.73
-2.96
-1.46
0.44
2.28
3.69
4.45
4.45
3.74
2.40
0.55
-1.65
-4.06
-6.61
-9.27
-12.11
-15.13
-18.22
-21.00
-22.95
-23.48
-22.25
-19.25
-14.89
-9.79
-4.57
0.35
4.80
8.78
12.31
15.28
17.42
18.47
18.28
16.97
14.92
12.63
10.51
8.80
7.49
6.44
5.54
4.77
4.24
4.07
4.31
4.82
5.33
5.53
5.12
3.99
2.19
-0.02
-2.26
-4.12
-5.27
-5.49
-4.79
-3.33
-1.42
0.58
2.34
3.57
4.15
4.08
3.46
2.42
1.10
-0.40
-1.95
-3.31
-4.15
-4.12
-3.02
-1.00
1.45
3.56
4.52
3.72
0.90
-3.78
-9.77
-16.15
-21.76
-25.45
-26.32
-24.07
-19.16
-12.66
-5.92
-0.06
4.29
7.06
8.56
9.18
9.22
8.81
8.06
7.11
6.22
5.62
5.40
5.45
5.53
5.39
4.95
4.35
3.93
3.99
4.66
5.76
6.84
7.44
7.23
6.24
4.78
3.28
2.03
1.04
0.09
-1.09
-2.63
-4.36
-5.94
-6.98
-7.33
-7.09
-6.57
-6.07
-5.75
-5.56
-5.31
-4.84
-4.12
-3.27
-2.46
-1.84
-1.48
-1.38
-1.52
-1.89
-2.48
-3.17
-3.80
-4.14
-4.07
-3.61
-2.97
-2.45
-2.22
-2.30
-2.47
-2.48
-2.13
-1.42
-0.48
0.48
1.33
2.08
2.81
3.60
4.45
5.19
5.59
5.40
4.48
2.96
1.16
-0.41
-1.34
-1.40
-0.68
0.50
1.75
2.74
3.36
3.66
3.78
3.89
4.12
4.49
4.94
5.32
5.38
4.91
3.77
2.04
0.01
-1.89
-3.20
-3.61
-3.05
-1.68
0.14
1.94
3.27
3.79
3.42
2.28
0.72
-0.85
-2.11
-2.91
-3.27
-3.38
-3.43
-3.54
-3.71
-3.77
-3.53
-2.82
-1.60
-0.08
1.32
2.01
1.42
-0.73
-4.31
-8.74
-13.12
-16.52
-18.28
-18.12
-16.23
-13.12
-9.40
-5.68
-2.35
0.41
2.55
4.16
5.34
6.21
6.89
7.42
7.74
7.67
7.01
5.64
3.69
1.62
0.03
-0.53
0.19
1.99
4.35
6.65
8.45
9.54
9.92
9.67
8.85
7.54
5.88
4.10
2.47
1.18
0.25
-0.47
-1.12
-1.80
-2.42
-2.84
-2.89
-2.57
-1.95
-1.22
-0.56
-0.14
-0.07
-0.50
-1.54
-3.19
-5.31
-7.55
-9.46
-10.62
-10.85
-10.28
-9.27
-8.22
-7.39
-6.80
-6.27
-5.61
-4.74
-3.73
-2.72
-1.81
-0.94
0.00
1.17
2.59
4.12
5.52
6.53
6.96
6.76
6.01
4.91
3.63
2.37
1.23
0.26
-0.55
-1.23
-1.81
-2.27
-2.57
-2.62
-2.34
-1.70
-0.69
0.55
1.84
2.94
3.58
3.53
2.68
1.12
-0.86
-2.77
-4.09
-4.44
-3.77
-2.41
-0.89
0.22
0.60
0.29
-0.38
-1.04
-1.44
-1.56
-1.52
-1.46
-1.39
-1.21
-0.81
-0.25
0.22
0.33
-0.06
-0.79
-1.47
-1.68
-1.25
-0.38
0.43
0.64
-0.02
-1.42
-3.09
-4.43
-4.97
-4.55
-3.27
-1.39
0.80
3.08
5.27
7.21
8.70
9.49
9.37
8.25
6.18
3.43
0.35
-2.65
-5.18
-6.90
-7.57
-7.03
-5.29
-2.56
0.69
3.79
6.04
6.89
6.16
4.00
0.88
-2.65
-6.05
-8.89
-10.86
-11.69
-11.22
-9.39
-6.40
-2.75
0.92
3.88
5.64
6.00
5.13
3.45
1.50
-0.27
-1.54
-2.19
-2.24
-1.79
-1.02
-0.17
0.52
0.86
0.82
0.60
0.54
0.94
1.89
3.13
4.16
4.43
3.65
1.90
-0.34
-2.46
-3.94
-4.53
-4.27
-3.36
-2.04
-0.51
1.10
2.64
3.92
4.70
4.78
4.13
2.92
1.44
0.04
-1.03
-1.71
-2.10
-2.38
-2.70
-3.08
-3.38
-3.39
-2.96
-2.03
-0.77
0.55
1.63
2.23
2.23
1.63
0.51
-1.00
-2.70
-4.31
-5.49
-5.87
-5.25
-3.68
-1.55
0.52
1.93
2.27
1.52
-0.02
-1.83
-3.47
-4.59
-5.05
-4.80
-3.84
-2.22
-0.09
2.29
4.48
6.05
6.67
6.24
4.94
3.17
1.36
-0.11
-1.07
-1.50
-1.52
-1.29
-0.91
-0.45
0.08
0.66
1.29
1.91
2.47
2.90
3.15
3.15
2.91
2.44
1.84
1.20
0.58
-0.00
-0.56
-1.09
-1.52
-1.72
-1.58
-1.10
-0.40
0.30
0.78
0.91
0.69
0.22
-0.40
-1.07
-1.75
-2.43
-3.02
-3.47
-3.71
-3.73
-3.57
-3.32
-3.06
-2.84
-2.65
-2.48
-2.33
-2.26
-2.39
-2.74
-3.28
-3.78
-4.00
-3.78
-3.16
-2.43
-1.95
-1.90
-2.16
-2.29
-1.82
-0.49
1.60
4.00
6.15
7.63
8.25
8.09
7.36
6.28
5.05
3.87
2.95
2.52
2.72
3.54
4.69
5.67
5.84
4.69
2.08
-1.55
-5.29
-8.01
-8.88
-7.69
-4.96
-1.71
1.04
2.63
2.97
2.40
1.44
0.48
-0.28
-0.81
-1.08
-1.06
-0.65
0.14
1.17
2.10
2.51
2.05
0.68
-1.35
-3.49
-5.10
-5.73
-5.25
-3.87
-2.06
-0.26
1.17
2.11
2.58
2.65
2.40
1.89
1.22
0.50
-0.11
-0.53
-0.75
-0.85
-0.91
-1.01
-1.19
-1.49
-1.87
-2.25
-2.47
-2.35
-1.77
-0.83
0.18
0.86
0.92
0.36
-0.50
-1.19
-1.26
-0.56
0.78
2.38
3.89
5.07
5.86
6.28
6.34
6.01
5.19
3.86
2.13
0.24
-1.51
-2.92
-3.93
-4.68
-5.35
-6.01
-6.56
-6.70
-6.15
-4.79
-2.81
-0.61
1.34
2.71
3.36
3.45
3.26
3.08
3.12
3.40
3.85
4.32
4.66
4.78
4.68
4.38
3.89
3.17
2.12
0.72
-0.92
-2.49
-3.51
-3.50
-2.16
0.48
4.10
8.20
12.16
15.25
16.68
15.66
11.70
4.97
-3.50
-11.92
-18.34
-21.33
-20.57
-16.92
-11.94
-7.20
-3.61
-1.35
-0.03
0.81
1.34
1.46
1.02
0.06
-1.11
-2.01
-2.28
-1.89
-1.18
-0.71
-0.99
-2.16
-3.93
-5.63
-6.50
-5.98
-3.99
-0.95
2.36
5.15
6.87
7.41
7.02
6.14
5.13
4.12
3.04
1.76
0.21
-1.53
-3.27
-4.85
-6.13
-7.01
-7.40
-7.17
-6.22
-4.63
-2.62
-0.65
0.80
1.40
1.06
-0.01
-1.39
-2.57
-3.14
-2.92
-1.92
-0.37
1.43
3.14
4.48
5.27
5.43
4.98
3.99
2.65
1.21
-0.05
-0.88
-1.12
-0.77
0.05
1.12
2.26
3.31
4.16
4.76
5.05
5.00
4.56
3.73
2.55
1.15
-0.32
-1.71
-2.86
-3.66
-4.03
-3.94
-3.44
-2.68
-1.86
-1.20
-0.83
-0.73
-0.74
-0.68
-0.48
-0.26
-0.32
-0.96
-2.28
-4.05
-5.79
-6.95
-7.17
-6.46
-5.15
-3.71
-2.52
-1.74
-1.25
-0.89
-0.46
0.07
0.68
1.30
1.87
2.35
2.71
2.92
2.97
2.93
2.91
3.04
3.38
3.88
4.40
4.78
4.87
4.69
4.30
3.89
3.61
3.56
3.75
4.10
4.47
4.73
4.77
4.56
4.12
3.49
2.71
1.80
0.78
-0.26
-1.22
-1.91
-2.23
-2.13
-1.69
-0.99
-0.13
0.84
1.83
2.69
3.17
3.02
2.03
0.21
-2.26
-5.02
-7.67
-9.88
-11.39
-12.05
-11.74
-10.43
-8.19
-5.28
-2.19
0.50
2.26
2.76
2.02
0.38
-1.63
-3.38
-4.36
-4.27
-3.06
-0.91
1.80
4.56
6.88
8.31
8.57
7.57
5.45
2.68
-0.11
-2.13
-2.78
-1.79
0.55
3.54
6.28
8.10
8.78
8.59
8.05
7.55
7.22
6.85
6.15
4.97
3.37
1.58
-0.22
-1.98
-3.83
-5.90
-8.18
-10.43
-12.23
-13.15
-12.89
-11.45
-9.12
-6.45
-4.04
-2.38
-1.67
-1.76
-2.19
-2.42
-2.00
-0.74
1.21
3.47
5.59
7.20
8.14
8.44
8.26
7.74
6.99
6.04
4.92
3.69
2.48
1.42
0.66
0.21
-0.02
-0.23
-0.61
-1.27
-2.19
-3.26
-4.30
-5.16
-5.69
-5.82
-5.56
-4.96
-4.20
-3.49
-3.07
-3.06
-3.43
-3.93
-4.24
-4.03
-3.16
-1.68
0.16
2.06
3.74
5.03
5.83
6.11
5.84
5.06
3.93
2.65
1.48
0.64
0.22
0.17
0.33
0.53
0.63
0.58
0.41
0.20
-0.01
-0.20
-0.40
-0.62
-0.83
-0.96
-0.97
-0.86
-0.72
-0.68
-0.78
-0.97
-1.05
-0.80
-0.12
0.89
1.92
2.58
2.63
2.05
1.08
0.11
-0.56
-0.75
-0.48
0.12
0.87
1.63
2.30
2.81
3.08
3.03
2.59
1.74
0.59
-0.60
-1.51
-1.85
-1.46
-0.43
0.90
2.10
2.83
2.92
2.48
1.78
1.09
0.59
0.29
0.13
0.08
0.14
0.43
1.05
1.98
3.05
3.90
4.13
3.48
1.98
0.01
-1.85
-3.01
-3.11
-2.21
-0.71
0.85
1.95
2.29
1.81
0.65
-0.94
-2.67
-4.24
-5.39
-5.91
-5.76
-4.99
-3.81
-2.42
-1.04
0.15
1.02
1.42
1.26
0.59
-0.37
-1.29
-1.81
-1.74
-1.12
-0.18
0.75
1.40
1.64
1.44
0.81
-0.19
-1.45
-2.68
-3.45
-3.35
-2.17
-0.13
2.21
4.17
5.26
5.35
4.76
3.94
3.26
2.83
2.50
2.02
1.27
0.27
-0.79
-1.71
-2.37
-2.77
-3.00
-3.13
-3.18
-3.14
-2.95
-2.57
-2.02
-1.36
-0.71
-0.17
0.23
0.53
0.84
1.29
1.86
2.42
2.70
2.44
1.51
-0.01
-1.84
-3.56
-4.82
-5.40
-5.29
-4.70
-3.90
-3.22
-2.87
-2.94
-3.35
-3.92
-4.43
-4.70
-4.64
-4.25
-3.54
-2.53
-1.24
0.25
1.82
3.25
4.33
4.98
5.18
5.08
4.84
4.65
4.62
4.79
5.15
5.60
6.01
6.21
6.08
5.57
4.73
3.74
2.76
1.93
1.26
0.70
0.11
-0.58
-1.39
-2.22
-2.94
-3.40
-3.53
-3.32
-2.84
-2.19
-1.46
-0.71
-0.03
0.50
0.77
0.72
0.33
-0.28
-0.96
-1.55
-1.99
-2.31
-2.63
-2.99
-3.32
-3.45
-3.15
-2.32
-1.03
0.45
1.75
2.54
2.66
2.15
1.20
0.05
-1.05
-1.92
-2.43
-2.50
-2.11
-1.26
-0.05
1.35
2.70
3.77
4.33
4.29
3.68
2.74
1.79
1.19
1.19
1.87
3.02
4.30
5.32
5.82
5.75
5.28
4.72
4.29
4.10
4.02
3.85
3.39
2.52
1.28
-0.20
-1.76
-3.24
-4.54
-5.56
-6.22
-6.49
-6.30
-5.71
-4.83
-3.87
-3.06
-2.62
-2.60
-2.91
-3.29
-3.51
-3.41
-3.03
-2.57
-2.24
-2.15
-2.23
-2.23
-1.89
-1.03
0.34
2.00
3.63
4.89
5.51
5.38
4.59
3.35
1.94
0.59
-0.57
-1.59
-2.61
-3.81
-5.30
-6.99
-8.66
-9.87
-10.16
-9.19
-6.90
-3.54
0.33
4.07
7.10
9.08
9.94
9.77
8.74
7.04
4.96
2.84
1.08
0.03
-0.22
0.19
0.89
1.47
1.64
1.30
0.55
-0.44
-1.47
-2.38
-3.05
-3.40
-3.46
-3.31
-3.09
-2.95
-2.95
-3.01
-2.97
-2.67
-2.02
-1.06
0.09
1.29
2.37
3.19
3.59
3.41
2.59
1.22
-0.43
-1.92
-2.85
-2.99
-2.43
-1.46
-0.52
0.09
0.24
-0.01
-0.45
-0.92
-1.30
-1.52
-1.59
-1.51
-1.31
-1.06
-0.87
-0.83
-1.00
-1.40
-1.92
-2.37
-2.54
-2.21
-1.24
0.35
2.33
4.36
5.99
6.90
7.00
6.43
5.54
4.70
4.18
4.03
4.11
4.17
3.96
3.35
2.34
1.05
-0.33
-1.67
-2.91
-4.02
-4.95
-5.58
-5.79
-5.50
-4.71
-3.61
-2.40
-1.27
-0.33
0.38
0.88
1.15
1.13
0.81
0.20
-0.56
-1.31
-1.86
-2.07
-1.87
-1.25
-0.25
1.04
2.41
3.60
4.27
4.14
3.03
1.03
-1.55
-4.19
-6.29
-7.40
-7.34
-6.28
-4.70
-3.13
-2.02
-1.47
-1.31
-1.14
-0.59
0.52
2.15
4.03
5.83
7.29
8.22
8.53
8.21
7.29
5.88
4.23
2.63
1.42
0.79
0.77
1.21
1.81
2.22
2.18
1.53
0.31
-1.28
-2.93
-4.26
-5.04
-5.15
-4.72
-3.99
-3.23
-2.61
-2.22
-2.01
-1.91
-1.80
-1.61
-1.23
-0.55
0.45
1.61
2.58
2.91
2.22
0.46
-2.02
-4.56
-6.45
-7.26
-6.94
-5.85
-4.46
-3.21
-2.28
-1.68
-1.35
-1.27
-1.45
-1.89
-2.44
-2.87
-2.92
-2.42
-1.41
-0.10
1.21
2.26
2.93
3.22
3.22
3.10
3.01
3.10
3.45
4.09
4.91
5.73
6.34
6.62
6.52
6.13
5.57
4.92
4.19
3.35
2.34
1.15
-0.11
-1.34
-2.36
-3.06
-3.37
-3.31
-2.94
-2.40
-1.84
-1.38
-1.11
-1.05
-1.16
-1.39
-1.64
-1.83
-1.93
-1.98
-2.07
-2.29
-2.69
-3.19
-3.59
-3.69
-3.38
-2.73
-1.94
-1.23
-0.73
-0.44
-0.23
0.00
0.33
0.73
1.18
1.62
2.01
2.28
2.30
1.92
1.08
-0.06
-1.12
-1.70
-1.52
-0.68
0.38
1.11
1.12
0.40
-0.67
-1.56
-1.88
-1.59
-0.97
-0.33
0.14
0.57
1.24
2.35
3.86
5.42
6.55
6.87
6.28
4.95
3.25
1.52
0.02
-1.14
-1.92
-2.28
-2.15
-1.46
-0.29
1.15
2.45
3.14
2.89
1.63
-0.44
-2.91
-5.31
-7.24
-8.43
-8.78
-8.30
-7.06
-5.20
-2.93
-0.52
1.67
3.29
4.04
3.81
2.65
0.82
-1.26
-3.16
-4.55
-5.24
-5.25
-4.73
-3.87
-2.83
-1.74
-0.61
0.55
1.76
2.96
4.04
4.84
5.22
5.12
4.60
3.82
3.00
2.32
1.88
1.70
1.71
1.85
2.04
2.24
2.35
2.28
1.95
1.35
0.56
-0.27
-0.97
-1.42
-1.63
-1.64
-1.56
-1.45
-1.35
-1.21
-1.01
-0.74
-0.43
-0.16
-0.03
-0.14
-0.50
-1.06
-1.70
-2.33
-2.89
-3.40
-3.89
-4.34
-4.64
-4.61
-4.12
-3.19
-2.01
-0.94
-0.31
-0.37
-1.10
-2.27
-3.51
-4.45
-4.83
-4.55
-3.70
-2.47
-1.08
0.24
1.36
2.25
2.95
3.54
4.11
4.71
5.32
5.88
6.31
6.55
6.57
6.40
6.13
5.88
5.73
5.69
5.69
5.62
5.38
4.94
4.33
3.64
2.91
2.13
1.21
0.08
-1.23
-2.59
-3.82
-4.76
-5.35
-5.61
-5.62
-5.40
-5.00
-4.46
-3.90
-3.50
-3.41
-3.65
-4.10
-4.50
-4.62
-4.35
-3.77
-3.07
-2.45
-2.00
-1.64
-1.25
-0.71
-0.04
0.58
0.93
0.86
0.38
-0.31
-0.93
-1.28
-1.33
-1.19
-1.05
-1.04
-1.14
-1.21
-1.08
-0.68
-0.01
0.80
1.64
2.43
3.15
3.77
4.28
4.65
4.84
4.86
4.75
4.59
4.44
4.32
4.22
4.09
3.93
3.74
3.54
3.32
2.98
2.37
1.36
-0.06
-1.79
-3.60
-5.21
-6.43
-7.21
-7.59
-7.67
-7.48
-7.04
-6.32
-5.34
-4.22
-3.12
-2.23
-1.64
-1.33
-1.18
-1.00
-0.66
-0.10
0.64
1.48
2.31
3.07
3.76
4.37
4.90
5.31
5.53
5.49
5.14
4.50
3.61
2.59
1.63
0.95
0.71
0.99
1.67
2.46
2.95
2.83
1.98
0.58
-0.94
-2.05
-2.37
-1.82
-0.62
0.80
2.03
2.83
3.19
3.27
3.26
3.25
3.24
3.15
2.93
2.60
2.23
1.90
1.62
1.33
0.92
0.28
-0.63
-1.75
-2.90
-3.88
-4.53
-4.81
-4.78
-4.60
-4.38
-4.17
-3.92
-3.58
-3.10
-2.52
-1.90
-1.32
-0.81
-0.39
-0.09
-0.02
-0.26
-0.87
-1.79
-2.83
-3.71
-4.23
-4.30
-4.02
-3.57
-3.16
-2.92
-2.86
-2.91
-2.92
-2.78
-2.38
-1.72
-0.84
0.17
1.17
2.06
2.77
3.27
3.60
3.79
3.90
3.92
3.89
3.82
3.76
3.77
3.93
4.26
4.74
5.28
5.77
6.14
6.37
6.50
6.64
6.78
6.87
6.75
6.23
5.18
3.58
1.57
-0.66
-2.85
-4.77
-6.26
-7.23
-7.70
-7.72
-7.39
-6.80
-6.04
-5.18
-4.28
-3.35
-2.39
-1.35
-0.20
0.98
1.99
2.49
2.18
1.01
-0.75
-2.53
-3.74
-4.08
-3.66
-2.97
-2.58
-2.79
-3.51
-4.30
-4.67
-4.35
-3.40
-2.16
-1.02
-0.22
0.26
0.64
1.15
1.96
3.05
4.30
5.53
6.56
7.22
7.32
6.76
5.52
3.82
2.07
0.76
0.24
0.62
1.68
3.01
4.18
4.94
5.26
5.20
4.80
4.04
2.83
1.15
-0.81
-2.73
-4.22
-5.00
-5.01
-4.44
-3.55
-2.63
-1.83
-1.21
-0.76
-0.50
-0.50
-0.82
-1.46
-2.34
-3.28
-4.11
-4.72
-5.08
-5.18
-5.04
-4.63
-3.95
-3.09
-2.24
-1.66
-1.52
-1.86
-2.50
-3.19
-3.66
-3.79
-3.61
-3.25
-2.83
-2.41
-1.96
-1.41
-0.74
0.05
0.92
1.85
2.80
3.74
4.62
5.38
6.01
6.53
6.97
7.32
7.54
7.55
7.34
6.95
6.49
6.07
5.74
5.42
4.98
4.33
3.41
2.29
1.04
-0.27
-1.60
-2.90
-4.08
-5.03
-5.64
-5.87
-5.74
-5.29
-4.63
-3.85
-3.08
-2.47
-2.15
-2.17
-2.47
-2.89
-3.27
-3.53
-3.69
-3.78
-3.77
-3.55
-2.95
-1.95
-0.67
0.57
1.42
1.66
1.26
0.41
-0.59
-1.43
-1.93
-2.05
-1.84
-1.47
-1.09
-0.82
-0.68
-0.60
-0.46
-0.17
0.33
1.00
1.75
2.50
3.17
3.76
4.25
4.71
5.16
5.66
6.18
6.63
6.89
6.84
6.44
5.80
5.06
4.34
3.66
2.90
1.89
0.56
-1.02
-2.62
-3.96
-4.81
-5.11
-4.95
-4.50
-3.95
-3.40
-2.90
-2.40
-1.92
-1.52
-1.32
-1.37
-1.67
-2.03
-2.19
-1.90
-1.10
0.08
1.35
2.45
3.20
3.67
4.01
4.38
4.85
5.34
5.71
5.82
5.62
5.13
4.41
3.50
2.42
1.22
-0.01
-1.11
-1.87
-2.04
-1.45
0.02
2.31
5.23
8.38
11.36
13.83
15.68
17.08
18.33
19.76
21.58
23.82
26.40
29.21
32.15
35.13
38.05
40.80
43.31
45.64
47.97
50.52
53.42
56.60
59.67
61.89
62.26
59.71
53.42
43.17
29.48
13.62
-2.85
-18.59
-32.92
-45.96
-58.35
-70.76
-83.41
-95.79
-106.83
-115.11
-119.33
-118.66
-112.91
-102.63
-88.94
-73.36
-57.47
-42.65
-29.86
-19.60
-11.89
-6.45
-2.81
-0.38
1.42
3.09
5.04
7.49
10.50
13.96
17.61
20.97
23.34
23.79
21.47
15.90
7.38
-2.95
-13.27
-21.61
-26.48
-27.24
-24.24
-18.55
-11.47
-4.17
2.49
8.03
12.20
14.95
16.43
16.93
16.84
16.49
15.98
15.15
13.62
11.11
7.58
3.44
-0.58
-3.66
-5.24
-5.12
-3.55
-1.06
1.75
4.35
6.33
7.47
7.75
7.37
6.72
6.22
6.14
6.41
6.69
6.53
5.67
4.25
2.75
1.74
1.59
2.29
3.46
4.60
5.31
5.43
4.98
4.08
2.83
1.31
-0.30
-1.78
-2.83
-3.20
-2.84
-1.90
-0.72
0.30
0.82
0.65
-0.22
-1.57
-3.02
-4.15
-4.59
-4.20
-3.08
-1.56
-0.06
1.14
1.95
2.44
2.78
3.03
3.11
2.86
2.13
0.94
-0.54
-2.02
-3.26
-4.16
-4.76
-5.15
-5.39
-5.43
-5.10
-4.30
-3.01
-1.41
0.16
1.37
1.94
1.77
0.92
-0.44
-2.10
-3.85
-5.44
-6.64
-7.20
-6.98
-5.96
-4.30
-2.30
-0.34
1.26
2.26
2.59
2.27
1.47
0.40
-0.66
-1.48
-1.88
-1.79
-1.24
-0.33
0.81
2.04
3.24
4.25
4.88
4.95
4.40
3.28
1.83
0.39
-0.68
-1.13
-0.90
-0.08
1.09
2.39
3.66
4.81
5.84
6.71
7.37
7.72
7.66
7.11
6.12
4.75
3.14
1.38
-0.44
-2.24
-3.88
-5.20
-6.05
-6.37
-6.20
-5.70
-5.06
-4.42
-3.83
-3.28
-2.78
-2.34
-2.03
-1.89
-1.94
-2.14
-2.43
-2.73
-2.99
-3.15
-3.11
-2.80
-2.17
-1.23
-0.10
1.08
2.14
2.97
3.50
3.68
3.48
2.94
2.14
1.28
0.61
0.33
0.59
1.34
2.43
3.55
4.41
4.73
4.39
3.41
2.03
0.58
-0.53
-1.03
-0.81
0.04
1.26
2.54
3.69
4.64
5.42
6.11
6.74
7.23
7.40
7.06
6.08
4.47
2.40
0.11
-2.11
-4.07
-5.64
-6.77
-7.39
-7.41
-6.82
-5.70
-4.33
-3.07
-2.26
-2.08
-2.45
-3.11
-3.77
-4.19
-4.27
-4.04
-3.57
-2.95
-2.22
-1.42
-0.57
0.29
1.12
1.88
2.49
2.85
2.85
2.44
1.64
0.60
-0.44
-1.26
-1.72
-1.77
-1.49
-1.01
-0.44
0.17
0.78
1.35
1.83
2.18
2.39
2.50
2.60
2.76
2.99
3.23
3.37
3.36
3.23
3.12
3.15
3.39
3.81
4.32
4.82
5.24
5.58
5.82
5.90
5.71
5.15
4.16
2.79
1.16
-0.53
-2.13
-3.50
-4.59
-5.34
-5.72
-5.66
-5.20
-4.42
-3.55
-2.82
-2.38
-2.25
-2.35
-2.56
-2.85
-3.27
-3.86
-4.53
-4.98
-4.84
-3.80
-1.89
0.54
2.89
4.51
5.02
4.38
2.85
0.85
-1.20
-2.98
-4.26
-4.90
-4.78
-3.81
-2.06
0.20
2.47
4.20
4.95
4.59
3.40
1.92
0.74
0.25
0.49
1.27
2.24
3.12
3.80
4.30
4.69
5.03
5.30
5.48
5.52
5.39
5.06
4.50
3.67
2.57
1.27
-0.09
-1.35
-2.35
-3.01
-3.35
-3.48
-3.47
-3.37
-3.17
-2.83
-2.37
-1.87
-1.46
-1.25
-1.26
-1.42
-1.65
-1.89
-2.15
-2.49
-2.95
-3.45
-3.89
-4.09
-3.98
-3.56
-2.93
-2.19
-1.42
-0.65
0.14
0.90
1.56
2.02
2.21
2.17
2.08
2.22
2.88
4.23
6.29
8.83
11.42
13.48
14.35
13.41
10.32
5.27
-0.91
-6.82
-10.95
-12.23
-10.50
-6.59
-1.95
2.01
4.49
5.50
5.62
5.49
5.38
5.11
4.25
2.58
0.26
-2.19
-4.15
-5.25
-5.52
-5.31
-5.07
-5.11
-5.49
-5.99
-6.30
-6.16
-5.54
-4.58
-3.60
-2.86
-2.53
-2.58
-2.85
-3.19
-3.51
-3.80
-4.09
-4.31
-4.31
-3.89
-2.98
-1.66
-0.19
1.12
2.08
2.62
2.80
2.67
2.22
1.44
0.41
-0.67
-1.48
-1.71
-1.22
-0.12
1.25
2.47
3.22
3.33
2.88
2.10
1.27
0.63
0.29
0.23
0.35
0.53
0.71
0.91
1.22
1.73
2.47
3.37
4.28
5.06
5.60
5.86
5.81
5.45
4.71
3.55
2.02
0.28
-1.41
-2.76
-3.59
-3.89
-3.82
-3.59
-3.38
-3.25
-3.18
-3.14
-3.08
-3.00
-2.90
-2.74
-2.47
-2.06
-1.54
-1.07
-0.81
-0.88
-1.25
-1.73
-2.07
-2.04
-1.61
-0.93
-0.29
0.05
-0.04
-0.48
-1.08
-1.60
-1.91
-1.98
-1.91
-1.78
-1.65
-1.46
-1.15
-0.64
0.10
0.99
1.93
2.79
3.48
3.93
4.14
4.16
4.07
3.97
3.93
3.95
3.99
3.98
3.88
3.68
3.45
3.26
3.15
3.09
2.98
2.72
2.19
1.38
0.41
-0.56
-1.29
-1.64
-1.60
-1.32
-1.05
-1.00
-1.21
-1.61
-1.97
-2.16
-2.14
-1.99
-1.87
-1.88
-1.98
-2.10
-2.14
-2.10
-2.05
-2.08
-2.22
-2.42
-2.55
-2.46
-2.11
-1.50
-0.74
0.00
0.54
0.71
0.46
-0.17
-1.02
-1.91
-2.66
-3.15
-3.34
-3.20
-2.73
-1.98
-1.05
-0.10
0.71
1.31
1.76
2.20
2.73
3.36
3.95
4.31
4.27
3.83
3.12
2.36
1.81
1.64
1.88
2.47
3.22
3.90
4.34
4.48
4.38
4.14
3.84
3.50
3.01
2.30
1.36
0.30
-0.69
-1.46
-1.92
-2.10
-2.08
-1.94
-1.77
-1.60
-1.48
-1.43
-1.46
-1.49
-1.43
-1.22
-0.88
-0.54
-0.36
-0.43
-0.69
-0.95
-1.01
-0.72
-0.12
0.61
1.23
1.52
1.33
0.67
-0.40
-1.72
-3.12
-4.34
-5.21
-5.58
-5.44
-4.90
-4.14
-3.32
-2.56
-1.85
-1.11
-0.25
0.76
1.87
2.97
3.98
4.85
5.58
6.16
6.53
6.58
6.22
5.46
4.43
3.42
2.69
2.39
2.49
2.77
2.96
2.84
2.33
1.48
0.41
-0.67
-1.60
-2.26
-2.61
-2.67
-2.55
-2.39
-2.28
-2.29
-2.37
-2.44
-2.41
-2.23
-1.92
-1.55
-1.23
-1.00
-0.90
-0.93
-1.08
-1.33
-1.64
-1.94
-2.15
-2.18
-2.01
-1.70
-1.38
-1.17
-1.20
-1.55
-2.21
-3.07
-3.96
-4.65
-4.91
-4.59
-3.70
-2.39
-0.90
0.53
1.73
2.64
3.29
3.77
4.13
4.40
4.60
4.76
4.92
5.11
5.33
5.52
5.62
5.56
5.32
4.90
4.40
3.91
3.52
3.32
3.27
3.25
3.10
2.66
1.88
0.83
-0.35
-1.46
-2.40
-3.10
-3.59
-3.87
-4.00
-4.01
-3.98
-4.01
-4.15
-4.35
-4.49
-4.35
-3.79
-2.81
-1.56
-0.32
0.62
1.09
1.04
0.62
0.06
-0.38
-0.52
-0.24
0.41
1.31
2.24
2.96
3.27
3.06
2.29
1.06
-0.41
-1.88
-3.09
-3.86
-4.15
-3.99
-3.52
-2.86
-2.11
-1.31
-0.52
0.20
0.81
1.34
1.84
2.39
3.03
3.66
4.11
4.20
3.86
3.22
2.49
1.92
1.67
1.74
1.98
2.24
2.42
2.51
2.51
2.40
2.06
1.37
0.27
-1.14
-2.64
-3.91
-4.74
-5.06
-4.96
-4.60
-4.13
-3.57
-2.92
-2.18
-1.41
-0.74
-0.25
0.05
0.23
0.41
0.70
1.08
1.49
1.81
1.93
1.84
1.61
1.36
1.21
1.25
1.48
1.82
2.15
2.33
2.25
1.82
0.99
-0.21
-1.67
-3.19
-4.51
-5.35
-5.58
-5.23
-4.48
-3.60
-2.80
-2.15
-1.61
-1.06
-0.41
0.36
1.16
1.87
2.36
2.60
2.64
2.55
2.45
2.43
2.48
2.58
2.70
2.81
2.89
2.95
2.96
2.87
2.63
2.20
1.62
1.00
0.44
0.02
-0.26
-0.49
-0.75
-1.08
-1.48
-1.90
-2.24
-2.44
-2.48
-2.35
-2.12
-1.87
-1.66
-1.53
-1.44
-1.35
-1.21
-1.01
-0.81
-0.70
-0.72
-0.88
-1.12
-1.36
-1.53
-1.62
-1.63
-1.59
-1.52
-1.47
-1.45
-1.47
-1.52
-1.55
-1.47
-1.23
-0.84
-0.37
0.08
0.42
0.63
0.78
1.02
1.45
2.11
2.91
3.64
4.09
4.13
3.75
3.09
2.38
1.83
1.59
1.62
1.81
1.99
2.03
1.89
1.64
1.38
1.16
0.97
0.73
0.36
-0.12
-0.61
-0.97
-1.12
-1.09
-0.99
-0.99
-1.18
-1.55
-2.03
-2.49
-2.84
-2.99
-2.85
-2.38
-1.59
-0.52
0.65
1.77
2.65
3.18
3.31
2.99
2.24
1.15
-0.05
-1.06
-1.60
-1.55
-1.07
-0.52
-0.28
-0.58
-1.34
-2.28
-3.06
-3.44
-3.39
-3.03
-2.56
-2.09
-1.65
-1.20
-0.73
-0.28
0.08
0.31
0.46
0.63
0.96
1.51
2.20
2.82
3.17
3.09
2.57
1.77
0.90
0.17
-0.31
-0.47
-0.33
0.06
0.62
1.21
1.69
1.91
1.85
1.54
1.08
0.62
0.22
-0.11
-0.41
-0.71
-0.96
-1.10
-1.07
-0.87
-0.59
-0.36
-0.27
-0.35
-0.53
-0.67
-0.66
-0.44
-0.07
0.33
0.60
0.61
0.28
-0.37
-1.23
-2.09
-2.73
-2.94
-2.65
-1.91
-0.90
0.16
1.03
1.57
1.69
1.38
0.70
-0.23
-1.24
-2.15
-2.78
-3.02
-2.85
-2.35
-1.70
-1.07
-0.56
-0.17
0.21
0.74
1.51
2.44
3.35
3.94
3.99
3.48
2.57
1.61
0.91
0.66
0.81
1.21
1.64
1.97
2.18
2.31
2.39
2.37
2.14
1.59
0.73
-0.32
-1.34
-2.11
-2.55
-2.71
-2.73
-2.73
-2.74
-2.73
-2.63
-2.42
-2.17
-1.93
-1.75
-1.59
-1.37
-1.07
-0.74
-0.47
-0.38
-0.50
-0.80
-1.18
-1.52
-1.77
-1.87
-1.80
-1.50
-0.94
-0.18
0.65
1.29
1.55
1.31
0.67
-0.16
-0.91
-1.40
-1.55
-1.35
-0.84
-0.04
1.03
2.29
3.59
4.77
5.69
6.32
6.67
6.77
6.62
6.15
5.37
4.34
3.23
2.23
1.45
0.87
0.41
-0.03
-0.52
-0.98
-1.36
-1.64
-1.88
-2.22
-2.76
-3.48
-4.18
-4.59
-4.46
-3.68
-2.40
-0.98
0.14
0.60
0.24
-0.84
-2.32
-3.81
-4.94
-5.42
-5.18
-4.30
-3.06
-1.76
-0.70
-0.06
0.16
0.04
-0.23
-0.50
-0.63
-0.56
-0.28
0.15
0.61
0.91
0.90
0.48
-0.29
-1.23
-2.10
-2.63
-2.65
-2.15
-1.24
-0.17
0.79
1.42
1.70
1.78
1.93
2.39
3.20
4.16
4.91
5.10
4.62
3.62
2.45
1.47
0.88
0.70
0.80
1.02
1.26
1.47
1.59
1.53
1.18
0.49
-0.48
-1.53
-2.37
-2.76
-2.59
-1.97
-1.13
-0.34
0.21
0.48
0.60
0.80
1.33
2.37
3.95
5.95
8.12
10.14
11.77
12.89
13.56
13.94
14.27
14.69
15.26
15.94
16.70
17.48
18.24
18.89
19.28
19.22
18.53
17.11
15.05
12.59
10.09
7.96
6.49
5.71
5.39
5.09
4.36
2.95
0.91
-1.45
-3.75
-5.68
-7.16
-8.21
-8.86
-8.99
-8.47
-7.24
-5.46
-3.53
-1.92
-0.99
-0.80
-1.15
-1.64
-1.82
-1.40
-0.28
1.42
3.38
5.15
6.25
6.27
4.98
2.43
-1.08
-5.08
-9.07
-12.67
-15.70
-18.16
-20.12
-21.62
-22.61
-22.95
-22.55
-21.43
-19.83
-18.13
-16.76
-16.03
-16.03
-16.60
-17.39
-17.98
-17.93
-16.88
-14.59
-10.96
-6.08
-0.30
5.80
11.53
16.22
19.48
21.31
22.11
22.44
22.77
23.27
23.76
23.89
23.43
22.45
21.28
20.23
19.34
18.19
16.09
12.37
6.77
-0.31
-7.96
-15.00
-20.41
-23.59
-24.52
-23.62
-21.55
-18.95
-16.27
-13.72
-11.36
-9.18
-7.24
-5.66
-4.55
-3.91
-3.57
-3.19
-2.47
-1.21
0.54
2.51
4.35
5.81
6.87
7.74
8.73
10.02
11.54
13.08
14.42
15.54
16.54
17.32
17.27
15.28
10.23
1.67
-9.63
-21.84
-32.83
-41.09
-46.34
-49.21
-50.49
-50.27
-47.80
-41.98
-32.44
-20.12
-7.19
3.80
11.02
13.94
13.39
10.86
7.72
4.73
1.96
-0.78
-3.64
-6.60
-9.54
-12.47
-15.64
-19.31
-23.57
-28.14
-32.32
-35.38
-36.84
-36.62
-34.81
-31.47
-26.53
-20.39
-14.32
-10.31
-10.46
-15.80
-25.42
-36.49
-45.18
-48.24
-44.53
-35.15
-22.44
-8.66
4.77
17.28
28.56
38.01
44.73
47.48
45.52
40.03
33.37
28.35
26.61
27.79
29.27
30.06
30.34
30.79
32.31
36.02
41.57
47.36
51.44
52.90
52.28
50.82
48.78
45.99
42.32
37.49
30.86
21.40
9.32
-3.98
-16.55
-26.73
-33.34
-34.95
-30.73
-21.45
-9.97
-0.74
0.86
-9.41
-34.76
-74.21
-118.38
-152.24
-162.99
-148.07
-114.40
-77.64
-41.31
-7.04
24.00
50.90
71.70
83.67
85.83
80.58
72.79
68.46
70.35
78.67
91.57
105.73
117.36
123.36
122.69
115.99
105.06
90.53
73.02
53.09
31.27
7.54
-18.97
-47.27
-73.35
-92.41
-103.04
-106.75
-106.44
-103.98
-100.09
-95.21
-89.04
-81.45
-73.05
-65.58
-60.94
-61.18
-68.54
-81.37
-97.28
-112.03
-120.16
-116.47
-98.15
-62.52
-17.80
25.41
58.62
77.73
84.44
83.94
81.60
80.34
80.11
78.65
74.84
69.45
64.04
60.57
60.14
62.34
65.75
68.75
70.23
70.77
72.21
73.94
74.30
70.94
61.68
45.82
24.89
2.24
-17.70
-31.41
-37.89
-38.28
-34.62
-29.24
-24.23
-21.39
-22.23
-27.84
-38.82
-55.14
-75.15
-94.64
-108.10
-110.52
-99.11
-74.23
-38.99
2.03
44.05
78.34
98.96
104.86
98.63
83.88
63.83
41.38
19.49
1.02
-11.82
-17.71
-17.30
-12.75
-7.25
-3.70
-3.57
-6.68
-11.66
-16.83
-20.39
-21.42
-20.22
-17.47
-14.38
-11.89
-10.38
-9.81
-9.96
-10.19
-9.95
-9.06
-7.65
-6.12
-4.71
-3.54
-2.68
-2.25
-2.17
-2.33
-2.58
-2.78
-2.88
-2.81
-2.65
-2.64
-3.06
-4.01
-5.34
-6.75
-7.91
-8.64
-8.81
-8.42
-7.43
-5.85
-3.73
-1.24
1.32
3.56
5.19
6.14
6.54
6.58
6.36
5.73
4.48
2.52
0.11
-2.13
-3.46
-3.29
-1.53
1.37
4.66
7.58
9.67
10.85
11.34
11.43
11.31
11.02
10.52
9.81
8.93
8.01
7.12
6.27
5.41
4.53
3.70
3.02
2.57
2.35
2.24
2.12
1.97
1.89
2.03
2.46
3.03
3.48
3.48
2.84
1.60
0.07
-1.28
-1.93
-1.46
0.30
3.17
6.57
9.71
11.77
12.23
11.05
8.64
5.66
2.72
0.21
-1.79
-3.33
-4.50
-5.32
-5.75
-5.83
-5.67
-5.51
-5.53
-5.81
-6.30
-6.80
-7.13
-7.17
-6.96
-6.63
-6.39
-6.38
-6.64
-7.11
-7.58
-7.80
-7.50
-6.53
-4.90
-2.81
-0.60
1.33
2.67
3.35
3.46
3.27
3.04
2.96
3.09
3.39
3.76
4.05
4.14
3.89
3.30
2.48
1.70
1.23
1.23
1.60
2.08
2.30
2.07
1.39
0.48
-0.45
-1.28
-2.04
-2.82
-3.64
-4.41
-4.93
-5.04
-4.71
-4.09
-3.38
-2.80
-2.41
-2.16
-1.90
-1.48
-0.80
0.15
1.29
2.47
3.51
4.20
4.32
3.74
2.53
0.93
-0.66
-1.87
-2.47
-2.48
-2.12
-1.68
-1.40
-1.37
-1.59
-1.99
-2.59
-3.41
-4.52
-5.88
-7.34
-8.60
-9.28
-9.02
-7.65
-5.22
-2.03
1.50
4.91
7.86
10.13
11.64
12.34
12.23
11.34
9.75
7.60
5.12
2.60
0.34
-1.36
-2.29
-2.35
-1.66
-0.47
0.87
2.03
2.77
3.03
2.87
2.45
1.95
1.52
1.17
0.86
0.48
-0.05
-0.74
-1.50
-2.19
-2.68
-2.91
-2.86
-2.58
-2.08
-1.39
-0.55
0.32
1.07
1.56
1.73
1.60
1.25
0.76
0.14
-0.62
-1.52
-2.51
-3.40
-3.97
-4.01
-3.46
-2.42
-1.13
0.11
1.05
1.52
1.47
0.94
0.06
-1.05
-2.22
-3.31
-4.20
-4.76
-4.91
-4.60
-3.83
-2.71
-1.40
-0.09
1.08
2.05
2.80
3.42
3.94
4.39
4.74
4.95
5.01
4.93
4.70
4.38
3.99
3.62
3.36
3.24
3.26
3.33
3.31
3.13
2.85
2.61
2.61
3.00
3.72
4.59
5.29
5.53
5.13
4.07
2.50
0.65
-1.25
-3.02
-4.60
-6.01
-7.28
-8.44
-9.38
-9.94
-9.94
-9.26
-7.93
-6.13
-4.10
-2.14
-0.49
0.66
1.25
1.29
0.89
0.25
-0.40
-0.86
-0.98
-0.71
-0.09
0.76
1.72
2.64
3.44
4.05
4.45
4.65
4.61
4.27
3.54
2.38
0.81
-1.01
-2.82
-4.31
-5.24
-5.52
-5.21
-4.53
-3.75
-3.14
-2.89
-2.99
-3.29
-3.56
-3.54
-3.09
-2.22
-1.08
0.09
1.09
1.77
2.11
2.15
1.98
1.69
1.35
1.01
0.69
0.41
0.16
-0.09
-0.34
-0.56
-0.65
-0.49
-0.01
0.81
1.91
3.17
4.46
5.66
6.65
7.29
7.44
7.00
6.01
4.68
3.31
2.22
1.60
1.44
1.59
1.81
1.92
1.78
1.33
0.51
-0.68
-2.17
-3.78
-5.22
-6.24
-6.68
-6.53
-5.93
-5.05
-4.04
-2.95
-1.83
-0.74
0.19
0.88
1.29
1.53
1.77
2.12
2.50
2.67
2.30
1.26
-0.24
-1.70
-2.45
-2.06
-0.54
1.61
3.64
4.84
4.87
3.86
2.23
0.49
-1.01
-2.19
-3.13
-3.93
-4.60
-5.05
-5.17
-4.94
-4.46
-3.91
-3.48
-3.26
-3.26
-3.40
-3.59
-3.76
-3.87
-3.90
-3.79
-3.47
-2.90
-2.08
-1.05
0.06
1.16
2.19
3.10
3.89
4.58
5.15
5.56
5.76
5.65
5.16
4.24
2.91
1.32
-0.24
-1.45
-2.01
-1.86
-1.21
-0.49
-0.20
-0.65
-1.88
-3.58
-5.27
-6.54
-7.15
-7.14
-6.67
-5.96
-5.17
-4.39
-3.66
-3.03
-2.52
-2.13
-1.78
-1.36
-0.77
0.01
0.87
1.65
2.15
2.34
2.29
2.25
2.45
3.06
4.05
5.20
6.20
6.74
6.66
5.99
4.89
3.61
2.37
1.28
0.38
-0.34
-0.91
-1.36
-1.66
-1.85
-1.93
-1.98
-2.08
-2.32
-2.77
-3.44
-4.29
-5.16
-5.86
-6.20
-6.06
-5.40
-4.30
-2.93
-1.51
-0.26
0.65
1.18
1.40
1.49
1.65
2.01
2.60
3.32
4.00
4.50
4.76
4.82
4.75
4.60
4.39
4.11
3.79
3.53
3.42
3.52
3.83
4.21
4.44
4.30
3.68
2.55
1.09
-0.48
-1.91
-3.02
-3.75
-4.18
-4.48
-4.80
-5.18
-5.54
-5.66
-5.37
-4.56
-3.24
-1.56
0.24
1.88
3.11
3.74
3.72
3.23
2.58
2.14
2.14
2.59
3.26
3.85
4.19
4.36
4.57
4.98
5.58
6.05
6.03
5.27
3.83
2.01
0.20
-1.29
-2.31
-2.93
-3.28
-3.50
-3.67
-3.87
-4.14
-4.47
-4.86
-5.21
-5.38
-5.28
-4.83
-4.03
-2.93
-1.58
-0.08
1.50
3.06
4.52
5.85
7.02
7.98
8.63
8.82
8.39
7.25
5.41
3.08
0.56
-1.74
-3.47
-4.41
-4.57
-4.15
-3.53
-3.10
-3.13
-3.69
-4.64
-5.74
-6.73
-7.49
-8.02
-8.47
-8.98
-9.66
-10.45
-11.21
-11.68
-11.60
-10.81
-9.29
-7.22
-4.92
-2.73
-0.89
0.56
1.79
3.08
4.69
6.71
9.01
11.21
12.77
13.20
12.18
9.74
6.30
2.64
-0.31
-1.73
-1.12
1.48
5.54
10.16
14.30
17.04
17.72
16.08
12.26
6.74
0.26
-6.33
-12.22
-16.76
-19.53
-20.38
-19.42
-16.99
-13.64
-10.00
-6.71
-4.26
-2.92
-2.60
-2.98
-3.51
-3.66
-3.14
-1.96
-0.52
0.63
1.06
0.69
-0.12
-0.76
-0.61
0.63
2.84
5.53
8.10
10.06
11.20
11.52
11.10
10.07
8.51
6.57
4.43
2.34
0.52
-0.94
-2.15
-3.31
-4.63
-6.19
-7.83
-9.26
-10.12
-10.22
-9.57
-8.40
-7.04
-5.77
-4.70
-3.75
-2.69
-1.26
0.68
3.11
5.84
8.53
10.83
12.43
13.22
13.26
12.80
12.17
11.67
11.47
11.57
11.82
11.98
11.79
11.05
9.65
7.61
5.04
2.13
-0.88
-3.77
-6.31
-8.33
-9.72
-10.42
-10.54
-10.23
-9.76
-9.40
-9.32
-9.52
-9.86
-10.08
-9.93
-9.22
-7.92
-6.11
-4.01
-1.95
-0.34
0.48
0.30
-0.80
-2.45
-4.12
-5.25
-5.49
-4.79
-3.39
-1.71
-0.21
0.82
1.27
1.23
0.92
0.61
0.53
0.80
1.41
2.28
3.29
4.39
5.61
7.01
8.58
10.19
11.68
12.89
13.79
14.47
15.04
15.46
15.51
14.82
13.15
10.53
7.40
4.41
2.20
1.15
1.28
2.37
4.03
5.93
7.79
9.36
10.36
10.49
9.53
7.38
4.17
0.26
-3.88
-7.76
-10.95
-13.25
-14.63
-15.26
-15.34
-15.04
-14.45
-13.60
-12.57
-11.52
-10.67
-10.25
-10.31
-10.69
-11.10
-11.20
-10.81
-9.98
-8.88
-7.71
-6.61
-5.60
-4.64
-3.73
-2.86
-1.91
-0.63
1.43
4.58
8.80
13.51
17.68
20.19
20.31
18.01
14.00
9.41
5.31
2.27
0.30
-1.01
-2.15
-3.38
-4.65
-5.67
-6.13
-5.83
-4.75
-2.97
-0.59
2.30
5.59
9.10
12.55
15.58
17.82
18.92
18.65
16.88
13.66
9.45
5.07
1.72
0.54
2.12
6.11
11.21
15.56
17.51
16.22
11.99
6.00
-0.25
-5.53
-9.23
-11.35
-12.23
-12.26
-11.73
-10.85
-9.89
-9.17
-9.03
-9.68
-11.06
-12.81
-14.41
-15.37
-15.37
-14.38
-12.55
-10.22
-7.71
-5.26
-3.04
-1.03
0.80
2.52
4.09
5.35
6.06
6.07
5.42
4.41
3.46
2.90
2.80
2.90
2.83
2.32
1.41
0.41
-0.30
-0.46
-0.17
0.22
0.31
-0.14
-1.10
-2.32
-3.53
-4.57
-5.40
-6.04
-6.50
-6.68
-6.44
-5.71
-4.54
-3.14
-1.69
-0.23
1.39
3.42
6.06
9.20
12.32
14.61
15.21
13.60
9.81
4.49
-1.29
-6.36
-9.87
-11.45
-11.29
-9.99
-8.26
-6.74
-5.86
-5.74
-6.32
-7.37
-8.55
-9.52
-9.98
-9.82
-9.09
-8.01
-6.82
-5.66
-4.52
-3.25
-1.68
0.22
2.33
4.40
6.14
7.33
7.84
7.62
6.73
5.31
3.65
2.08
0.88
0.18
-0.06
0.04
0.35
0.82
1.43
2.11
2.74
3.16
3.34
3.40
3.48
3.64
3.72
3.37
2.24
0.25
-2.30
-4.83
-6.74
-7.70
-7.79
-7.37
-6.90
-6.62
-6.52
-6.37
-5.99
-5.32
-4.57
-4.01
-3.81
-3.96
-4.18
-4.08
-3.32
