1636420037.00
64.000000
-0.00
-0.00
-0.00
-0.00
-0.00
-0.00
-0.00
-0.00
-0.00
-0.00
0.00
0.01
0.01
-0.00
-0.03
-0.05
-0.05
0.00
0.13
0.36
0.66
1.01
1.37
1.72
2.06
2.40
2.79
3.24
3.80
4.42
5.06
5.66
6.20
6.68
7.15
7.68
8.31
9.14
10.09
11.04
11.88
12.56
13.14
13.76
14.65
15.96
17.91
20.32
22.90
25.38
27.58
29.57
31.68
34.32
37.81
42.54
48.15
54.10
59.83
64.97
69.58
74.14
79.34
85.71
93.76
103.00
112.62
121.73
129.77
136.75
143.30
150.75
157.78
166.65
177.95
191.79
206.96
220.56
228.25
225.38
208.57
176.91
132.78
80.01
22.93
-35.20
-92.81
-149.62
-205.74
-260.88
-314.25
-364.39
-410.40
-451.57
-487.28
-516.62
-538.18
-550.18
-550.88
-539.25
-515.12
-479.72
-435.16
-384.02
-328.86
-271.85
-214.66
-158.60
-104.83
-54.34
-8.24
32.60
67.64
96.82
120.47
139.21
153.64
164.23
171.27
174.92
175.46
173.35
169.26
163.95
158.00
151.68
144.89
137.35
128.79
119.24
109.10
99.02
89.63
81.29
73.93
67.15
60.42
53.25
45.24
36.14
26.03
15.64
6.55
0.97
1.02
7.65
19.96
35.27
50.03
61.20
67.33
68.78
67.03
63.67
59.67
55.23
50.24
44.82
39.46
34.81
31.27
28.70
26.56
24.28
21.54
18.46
15.46
13.02
11.40
10.54
10.09
9.63
8.77
7.33
5.33
3.08
1.04
-0.23
-0.37
0.61
2.24
3.75
4.38
3.75
2.01
-0.28
-2.39
-3.85
-4.52
-4.62
-4.47
-4.29
-4.11
-3.80
-3.25
-2.42
-1.43
-0.50
0.12
0.25
-0.12
-0.85
-1.69
-2.43
-2.94
-3.21
-3.25
-3.07
-2.71
-2.19
-1.63
-1.15
-0.85
-0.73
-0.68
-0.55
-0.23
0.27
0.93
1.62
2.29
2.95
3.64
4.43
5.32
6.29
7.29
8.26
9.16
9.89
10.39
10.62
10.57
10.27
9.81
9.24
8.59
7.84
6.75
5.16
2.97
0.28
-2.66
-5.50
-7.93
-9.82
-11.15
-12.05
-12.62
-12.94
-13.00
-12.76
-12.26
-11.57
-10.85
-10.26
-9.87
-9.64
-9.43
-9.11
-8.58
-7.94
-7.35
-6.95
-6.81
-6.81
-6.77
-6.55
-6.10
-5.55
-5.08
-4.80
-4.71
-4.70
-4.62
-4.32
-3.68
-2.62
-1.11
0.78
2.86
4.83
6.38
7.28
7.49
7.15
6.52
5.85
5.22
4.58
3.82
2.85
1.77
0.77
0.08
-0.21
-0.15
0.05
0.16
0.06
-0.22
-0.57
-0.83
-0.95
-0.98
-1.02
-1.19
-1.53
-2.00
-2.53
-3.09
-3.62
-4.11
-4.57
-4.99
-5.41
-5.88
-6.45
-7.15
-7.91
-8.59
-9.02
-9.01
-8.51
-7.50
-6.09
-4.41
-2.60
-0.81
0.88
2.38
3.63
4.58
5.19
5.47
5.48
5.27
4.92
4.52
4.12
3.75
3.47
3.28
3.19
3.15
3.07
2.86
2.48
1.96
1.36
0.78
0.25
-0.25
-0.80
-1.43
-2.14
-2.84
-3.50
-4.12
-4.74
-5.47
-6.33
-7.23
-8.00
-8.35
-8.07
-7.05
-5.37
-3.24
-0.97
1.14
2.88
4.12
4.87
5.20
5.24
5.10
4.86
4.59
4.36
4.21
4.16
4.21
4.29
4.32
4.19
3.85
3.33
2.73
2.13
1.59
1.10
0.58
-0.02
-0.69
-1.40
-2.08
-2.69
-3.28
-3.96
-4.83
-5.93
-7.20
-8.41
-9.29
-9.57
-9.13
-7.98
-6.30
-4.37
-2.46
-0.79
0.56
1.57
2.25
2.66
2.83
2.85
2.80
2.77
2.81
2.87
2.87
2.71
2.36
1.83
1.18
0.48
-0.24
-0.99
-1.79
-2.66
-3.59
-4.52
-5.39
-6.18
-6.90
-7.62
-8.41
-9.37
-10.55
-11.94
-13.49
-15.07
-16.51
-17.60
-18.14
-17.94
-16.91
-15.05
-12.49
-9.45
-6.19
-2.93
0.18
3.08
5.77
8.29
10.63
12.74
14.51
15.85
16.68
17.01
16.93
16.56
16.00
15.33
14.61
13.88
13.14
12.39
11.59
10.65
9.53
8.25
6.89
5.59
4.43
3.40
2.39
1.28
-0.02
-1.49
-3.04
-4.54
-5.85
-6.86
-7.44
-7.48
-6.88
-5.65
-3.91
-1.89
0.10
1.85
3.22
4.22
4.91
5.36
5.59
5.64
5.51
5.26
4.94
4.61
4.33
4.12
3.98
3.88
3.75
3.52
3.13
2.58
1.91
1.22
0.59
0.07
-0.36
-0.76
-1.22
-1.82
-2.59
-3.49
-4.46
-5.44
-6.36
-7.19
-7.88
-8.33
-8.43
-8.06
-7.15
-5.73
-3.93
-1.94
-0.02
1.65
2.94
3.85
4.44
4.80
4.99
5.03
4.92
4.65
4.28
3.89
3.61
3.50
3.58
3.76
3.92
3.96
3.80
3.43
2.88
2.21
1.51
0.85
0.30
-0.18
-0.66
-1.24
-2.02
-3.01
-4.15
-5.35
-6.48
-7.43
-8.08
-8.28
-7.94
-7.02
-5.61
-3.89
-2.11
-0.44
1.03
2.29
3.37
4.26
4.93
5.29
5.35
5.19
4.95
4.78
4.74
4.81
4.89
4.89
4.73
4.39
3.90
3.29
2.63
1.99
1.45
1.08
0.90
0.80
0.64
0.24
-0.50
-1.54
-2.77
-4.06
-5.36
-6.67
-7.99
-9.25
-10.22
-10.62
-10.24
-9.06
-7.26
-5.18
-3.10
-1.21
0.47
2.00
3.42
4.71
5.75
6.43
6.71
6.66
6.44
6.30
6.37
6.69
7.11
7.40
7.36
6.91
6.12
5.19
4.29
3.54
2.90
2.31
1.68
1.03
0.39
-0.19
-0.70
-1.21
-1.80
-2.52
-3.37
-4.29
-5.22
-6.10
-6.90
-7.52
-7.84
-7.74
-7.13
-6.01
-4.52
-2.85
-1.18
0.38
1.79
3.03
4.07
4.86
5.37
5.61
5.70
5.76
5.85
5.96
5.99
5.85
5.55
5.17
4.89
4.81
4.95
5.18
5.30
5.16
4.71
3.98
3.11
2.20
1.33
0.49
-0.33
-1.17
-1.99
-2.78
-3.50
-4.16
-4.82
-5.53
-6.32
-7.11
-7.74
-7.99
-7.66
-6.69
-5.15
-3.28
-1.37
0.29
1.57
2.43
2.95
3.26
3.45
3.62
3.82
4.09
4.42
4.78
5.07
5.25
5.32
5.33
5.40
5.60
5.88
6.20
6.50
6.75
6.94
7.04
7.01
6.87
6.79
7.15
8.38
10.75
14.18
18.27
22.41
26.13
29.29
32.07
34.78
37.65
40.65
43.55
46.04
47.86
48.80
48.68
47.20
44.01
38.87
31.78
23.14
13.68
4.21
-4.67
-12.66
-19.75
-26.07
-31.73
-36.78
-41.18
-44.84
-47.73
-49.93
-51.63
-53.07
-54.31
-55.07
-54.79
-52.74
-48.38
-41.56
-32.60
-22.12
-10.81
0.62
11.47
20.95
28.25
32.79
34.66
34.67
34.03
33.53
33.09
31.79
28.65
23.59
17.76
13.10
11.14
12.08
14.64
16.93
17.74
17.26
16.99
18.65
22.98
29.25
35.56
39.94
41.31
39.89
36.78
33.32
30.42
28.29
26.62
24.97
23.10
21.01
18.88
16.85
14.81
12.39
9.11
4.66
-0.94
-7.33
-13.95
-20.36
-26.34
-31.87
-36.90
-41.19
-44.30
-45.80
-45.57
-43.94
-41.48
-38.54
-34.92
-29.74
-21.87
-10.62
3.67
19.43
34.34
45.96
52.56
53.38
48.70
39.41
26.77
12.12
-3.14
-17.73
-30.58
-41.07
-49.10
-55.15
-59.92
-64.09
-67.90
-71.00
-72.41
-70.86
-65.14
-54.55
-39.25
-20.18
1.11
22.95
43.66
61.51
74.47
80.45
77.91
66.76
49.04
28.59
9.79
-4.22
-12.75
-17.50
-21.28
-26.26
-32.76
-39.31
-43.81
-44.87
-42.58
-38.37
-34.17
-31.41
-30.55
-31.23
-32.56
-33.66
-33.93
-33.13
-31.27
-28.54
-25.12
-21.19
-17.00
-12.94
-9.72
-8.11
-8.62
-11.14
-14.86
-18.58
-21.28
-22.60
-23.00
-23.26
-23.88
-24.74
-25.14
-24.47
-22.83
-21.39
-21.93
-25.87
-33.07
-41.29
-46.65
-45.01
-33.35
-10.78
21.30
59.64
99.55
135.59
162.03
173.69
167.44
143.96
108.59
70.34
38.80
20.13
15.29
20.22
28.03
32.13
28.69
17.37
0.29
-19.87
-41.85
-64.40
-85.43
-102.37
-113.54
-119.28
-121.96
-124.89
-130.51
-140.57
-153.35
-164.52
-169.79
-167.42
-158.64
-146.33
-133.36
-121.68
-114.05
-110.91
-109.80
-106.64
-97.38
-79.21
-50.99
-13.86
40.18
106.55
170.62
217.46
241.87
248.65
245.95
239.86
232.05
221.19
203.01
175.16
140.22
103.40
70.00
43.39
24.13
10.56
0.15
-10.46
-22.07
-32.88
-40.71
-45.07
-47.72
-51.34
-57.60
-66.12
-75.62
-83.49
-86.83
-83.93
-74.93
-61.47
-45.74
-29.56
-14.07
-0.42
10.71
19.18
24.97
28.06
28.39
25.94
21.30
15.70
10.49
6.75
4.93
4.40
3.78
1.48
-4.06
-13.05
-24.20
-35.21
-43.81
-48.41
-48.54
-44.67
-37.84
-30.14
-23.30
-18.24
-15.17
-13.98
-14.27
-15.89
-18.59
-22.01
-26.76
-33.07
-40.48
-48.07
-55.07
-60.90
-66.03
-71.61
-71.99
-65.03
-52.60
-38.87
-26.32
-14.50
-1.50
12.67
25.63
34.28
35.68
30.05
20.94
13.73
12.50
20.12
36.02
57.68
82.93
109.95
137.62
164.08
186.59
197.51
193.83
176.32
149.23
119.08
91.12
67.55
47.71
27.31
3.46
-23.87
-53.86
-85.22
-115.13
-139.76
-154.73
-156.92
-144.22
-115.94
-70.00
-8.73
55.12
105.30
130.46
134.70
124.98
107.23
85.67
60.43
32.07
1.33
-29.15
-55.23
-73.02
-81.48
-81.69
-75.95
-67.08
-57.89
-50.53
-45.00
-39.64
-32.63
-23.77
-13.74
-3.44
6.15
14.09
19.46
22.16
22.80
22.21
20.53
17.84
14.48
10.88
7.48
4.49
2.13
0.57
-0.34
-1.37
-3.43
-7.12
-12.58
-19.32
-26.43
-32.70
-36.92
-38.30
-36.72
-32.64
-26.97
-20.95
-15.97
-13.38
-14.08
-18.16
-24.71
-31.98
-37.94
-41.04
-40.87
-38.31
-35.05
-32.85
-32.62
-34.13
-36.19
-37.30
-36.45
-33.55
-29.46
-25.59
-23.41
-24.03
-28.03
-35.21
-44.35
-53.00
-57.61
-54.37
-40.66
-16.44
15.17
48.62
77.98
99.23
111.76
118.18
122.59
128.39
136.60
145.78
153.10
156.10
153.78
146.74
136.39
123.78
108.97
91.30
70.36
47.14
24.46
6.48
-2.99
-2.14
7.67
22.19
35.77
43.52
43.15
35.46
23.64
11.56
2.17
-3.53
-6.49
-8.88
-13.00
-20.39
-31.20
-43.88
-55.49
-62.26
-60.78
-49.36
-29.10
-4.08
19.49
35.18
38.53
28.54
8.05
-17.25
-40.57
-55.97
-59.67
-50.87
-32.08
-8.66
12.30
24.05
22.54
8.24
-13.72
-35.28
-48.47
-48.34
-34.45
-10.52
17.46
43.53
63.22
74.11
75.57
68.37
54.50
37.06
19.95
7.12
1.53
4.29
14.28
28.37
42.45
52.75
57.08
55.61
50.75
46.23
45.47
50.16
59.39
69.90
77.45
78.41
70.89
54.86
31.44
2.13
-31.35
-66.76
-100.72
-128.86
-146.79
-151.76
-143.95
-126.54
-104.52
-82.84
-65.00
-52.70
-46.46
-46.48
-52.95
-65.30
-81.14
-95.47
-101.40
-92.32
-65.03
-22.19
27.28
70.70
96.04
96.45
72.68
32.34
-13.62
-55.22
-86.50
-106.22
-116.24
-119.05
-116.12
-107.69
-93.71
-75.07
-54.07
-33.92
-17.45
-6.02
0.92
5.25
8.99
13.16
17.17
19.29
17.60
11.21
0.87
-11.11
-21.74
-28.43
-29.78
-25.82
-17.70
-7.11
4.28
15.25
25.05
33.35
40.02
45.00
48.15
49.32
48.38
45.38
40.58
34.47
27.68
20.85
14.55
9.13
4.76
1.39
-1.15
-3.11
-4.75
-6.29
-7.79
-9.18
-10.30
-10.98
-11.17
-10.99
-10.73
-10.73
-11.35
-12.78
-15.07
-18.07
-21.40
-24.49
-26.58
-26.89
-24.92
-20.63
-14.66
-8.25
-2.87
0.27
0.68
-1.33
-4.79
-8.52
-11.53
-13.24
-13.48
-12.34
-10.09
-7.18
-4.25
-2.01
-0.99
-1.26
-2.29
-3.07
-2.57
-0.18
4.01
9.23
14.36
18.37
20.64
21.04
19.95
17.99
15.85
14.05
12.78
11.85
10.78
9.04
6.36
2.96
-0.46
-2.93
-3.55
-1.91
1.78
6.69
11.66
15.59
17.69
17.69
15.85
12.88
9.69
7.19
6.04
6.50
8.39
11.11
13.81
15.61
15.89
14.41
11.44
7.59
3.62
0.30
-1.86
-2.63
-2.11
-0.69
0.99
2.28
2.63
1.83
0.09
-2.06
-4.00
-5.35
-6.02
-6.25
-6.36
-6.51
-6.64
-6.48
-5.80
-4.44
-2.44
0.07
2.98
6.18
9.56
12.88
15.72
17.60
18.04
16.85
14.19
10.56
6.66
3.18
0.50
-1.36
-2.75
-4.15
-5.97
-8.24
-10.65
-12.63
-13.66
-13.58
-12.77
-12.17
-12.93
-16.06
-21.98
-30.34
-40.05
-49.60
-57.32
-61.74
-61.77
-56.93
-47.57
-34.99
-21.25
-8.55
1.70
9.47
16.21
24.10
34.81
48.45
63.39
76.91
86.60
91.38
91.89
89.76
86.53
82.61
77.06
68.08
53.98
34.26
10.42
-13.95
-33.78
-43.95
-41.05
-24.80
1.50
31.93
59.98
80.86
92.81
97.02
96.27
93.28
89.62
85.52
80.45
73.76
65.06
54.20
40.99
25.43
8.10
-9.27
-23.98
-33.08
-34.31
-27.01
-12.58
5.68
23.50
37.23
45.37
48.53
48.63
47.62
46.69
46.05
45.25
43.95
42.07
39.94
36.57
29.55
15.98
-5.04
-30.77
-55.48
-72.59
-77.64
-69.24
-50.02
-24.97
0.34
21.60
36.12
41.80
37.22
17.39
-17.01
-57.58
-91.23
-109.07
-110.10
-99.68
-86.30
-77.22
-76.50
-83.34
-94.78
-104.92
-108.80
-102.97
-86.06
-59.77
-27.07
8.59
45.07
77.28
103.32
124.18
141.46
157.36
166.98
164.29
145.28
110.42
64.70
16.73
-25.58
-55.84
-70.30
-70.70
-62.31
-51.57
-42.89
-37.24
-32.27
-25.61
-16.99
-8.99
-5.81
-9.69
-19.57
-31.42
-40.47
-43.30
-39.76
-32.58
-25.69
-22.26
-22.88
-26.03
-29.41
-31.10
-29.52
-24.32
-16.55
-8.47
-2.81
-1.77
-6.74
-18.12
-35.21
-55.32
-75.47
-93.79
-109.88
-123.91
-135.76
-145.17
-152.33
-158.01
-161.89
-163.77
-164.19
-163.62
-160.85
-152.89
-136.57
-110.18
-73.74
-26.18
33.22
103.21
179.84
257.28
328.36
385.01
420.00
416.70
368.65
289.53
206.48
140.90
98.98
75.55
61.71
50.66
37.94
26.59
20.48
19.95
21.02
18.28
7.67
-12.42
-41.53
-72.39
-97.60
-112.54
-117.82
-118.34
-119.25
-122.47
-126.36
-127.88
-125.40
-119.89
-114.69
-113.54
-117.62
-123.99
-127.19
-123.14
-112.11
-98.68
-89.01
-87.33
-94.21
-106.60
-119.38
-127.49
-127.66
-118.81
-101.52
-77.38
-48.32
-16.45
16.00
46.89
74.45
97.47
115.68
130.00
142.28
154.62
168.20
182.14
193.44
198.06
193.02
178.37
157.80
137.37
122.97
117.49
119.37
123.16
121.87
109.82
84.85
48.73
6.13
-37.31
-76.86
-109.74
-135.34
-154.71
-169.56
-181.34
-190.61
-196.75
-198.17
-193.01
-179.80
-158.12
-128.93
-94.58
-58.45
-24.36
4.29
25.25
38.04
43.92
45.40
45.23
45.36
46.31
47.37
47.61
47.11
47.80
53.18
66.77
89.94
120.28
151.46
175.07
183.77
174.22
148.46
112.95
75.90
44.45
23.00
13.26
15.36
28.75
52.11
82.51
114.63
141.27
155.15
151.44
129.52
93.19
49.20
4.85
-34.19
-64.99
-87.19
-102.02
-111.06
-115.58
-116.32
-113.90
-109.22
-103.69
-99.00
-96.68
-97.64
-102.05
-109.57
-119.60
-131.45
-144.14
-156.16
-165.37
-169.43
-166.61
-156.53
-140.45
-120.75
-99.99
-79.91
-60.93
-42.25
-22.29
0.77
28.50
61.54
98.80
136.76
169.50
189.99
192.49
174.94
140.14
95.01
47.97
5.97
-27.52
-52.69
-71.74
-86.79
-98.26
-104.74
-103.79
-93.48
-73.64
-46.39
-15.95
12.52
34.33
46.74
49.71
45.88
39.55
35.08
35.41
41.06
50.09
58.88
63.59
61.38
51.28
34.35
12.97
-10.05
-32.25
-51.83
-67.57
-78.65
-84.68
-86.17
-84.78
-83.31
-84.96
-92.23
-105.78
-124.04
-143.73
-161.00
-172.60
-176.51
-171.71
-157.69
-134.16
-101.40
-60.87
-15.72
29.68
71.03
105.37
131.82
151.05
164.09
171.32
172.35
166.96
156.21
143.00
131.41
125.16
126.19
133.84
145.07
155.53
160.97
158.48
147.18
128.27
104.41
78.68
53.59
30.53
9.86
-8.36
-23.63
-34.64
-39.81
-38.30
-30.91
-20.37
-10.39
-4.19
-3.15
-6.39
-11.59
-16.25
-19.00
-19.91
-19.97
-20.03
-20.07
-19.23
-16.49
-11.51
-4.97
1.65
6.70
9.12
8.78
6.55
4.05
3.05
4.83
9.80
17.26
25.69
33.45
39.50
43.62
46.13
47.31
46.95
44.45
38.85
29.03
13.75
-8.13
-37.14
-72.46
-111.22
-148.41
-177.45
-192.74
-191.98
-177.04
-153.11
-126.52
-102.60
-84.26
-71.89
-63.27
-56.13
-49.06
-41.44
-32.59
-21.19
-5.83
14.00
37.44
63.78
90.88
115.63
135.09
147.99
155.27
159.27
162.49
166.78
174.74
186.77
200.68
212.69
219.39
219.32
212.53
199.80
169.93
118.75
51.63
-18.62
-80.13
-127.60
-161.15
-184.28
-201.54
-217.38
-230.85
-239.48
-241.51
-236.71
-226.27
-210.88
-191.46
-169.12
-141.92
-108.68
-70.86
-32.65
0.93
25.68
41.55
50.77
56.30
62.73
74.30
92.59
116.60
144.35
173.06
202.00
230.09
242.60
229.82
192.35
139.88
83.35
36.46
-2.62
-34.90
-59.89
-76.57
-83.25
-78.86
-65.81
-49.83
-37.36
-33.86
-39.50
-51.11
-64.08
-72.78
-74.11
-68.99
-61.23
-54.72
-51.94
-51.23
-49.34
-43.42
-31.38
-13.45
7.78
28.56
45.53
56.33
60.85
60.04
55.34
48.74
41.86
35.22
28.25
19.91
9.18
-3.63
-17.27
-30.00
-40.24
-47.37
-52.00
-55.39
-58.46
-61.15
-62.21
-60.05
-53.71
-43.52
-31.02
-18.31
-7.19
1.54
8.10
13.32
17.94
22.04
25.02
25.84
23.68
18.40
10.72
1.96
-6.46
-13.51
-18.78
-22.34
-24.38
-24.93
-23.73
-20.33
-14.36
-5.75
5.20
17.81
31.11
43.85
54.74
62.63
66.82
67.31
64.82
60.55
55.78
51.48
48.03
45.30
42.83
40.09
36.71
32.56
27.75
22.55
17.38
12.66
8.81
6.20
5.07
5.47
7.22
9.80
12.49
14.58
15.58
15.49
14.68
13.72
13.08
12.86
12.75
12.14
10.36
6.99
2.00
-4.14
-10.49
-15.81
-18.86
-18.72
-15.11
-8.53
-0.06
8.96
17.44
24.78
30.87
35.92
40.05
43.17
44.92
44.96
43.08
39.40
34.21
27.89
20.76
13.10
5.24
-2.35
-9.14
-14.70
-18.91
-22.16
-25.21
-29.00
-34.24
-41.10
-49.08
-57.15
-64.14
-69.10
-71.57
-71.68
-69.89
-66.74
-62.60
-57.65
-51.85
-45.20
-37.77
-29.75
-21.36
-12.76
-4.17
4.03
11.09
15.87
17.12
13.98
6.54
-3.98
-15.60
-26.36
-35.08
-41.64
-46.44
-49.33
-49.01
-43.12
-29.57
-8.06
18.83
46.10
67.94
79.88
80.30
70.63
54.31
35.22
16.44
-0.25
-14.11
-24.89
-32.41
-36.45
-36.99
-34.43
-29.67
-23.91
-18.40
-14.07
-11.30
-9.86
-9.04
-7.97
-6.02
-3.09
0.36
3.55
5.95
7.62
9.24
11.77
15.76
20.97
26.35
30.55
32.47
31.64
28.02
21.70
12.78
1.73
-10.15
-20.54
-26.85
-27.27
-21.95
-13.14
-4.38
1.10
1.61
-2.53
-9.67
-17.90
-25.88
-33.04
-39.35
-44.88
-49.59
-53.45
-56.47
-58.64
-59.84
-59.64
-57.52
-53.11
-46.58
-38.73
-31.02
-25.12
-22.55
-24.06
-28.96
-34.74
-37.31
-32.25
-16.80
8.44
39.04
68.06
88.68
96.85
92.54
79.13
61.29
42.86
25.73
10.20
-3.89
-16.10
-25.31
-30.35
-30.83
-27.46
-21.77
-15.46
-9.82
-5.44
-2.28
0.12
2.30
4.66
7.31
9.91
11.83
12.32
10.92
7.67
3.16
-1.61
-5.66
-8.29
-9.28
-8.82
-7.37
-5.50
-3.81
-2.91
-3.39
-5.70
-9.94
-15.64
-21.74
-26.85
-29.67
-29.51
-26.59
-21.94
-16.98
-12.98
-10.64
-9.97
-10.49
-11.57
-12.67
-13.49
-13.88
-13.73
-12.91
-11.41
-9.36
-7.13
-5.24
-4.11
-3.87
-4.16
-4.24
-3.26
-0.67
3.42
8.16
12.14
13.81
12.05
6.44
-2.63
-14.04
-26.19
-36.98
-43.83
-43.98
-35.02
-16.00
11.64
43.85
74.71
98.19
109.88
108.15
94.04
70.24
39.92
6.03
-28.57
-60.70
-86.70
-103.03
-107.29
-99.11
-80.38
-54.78
-26.70
-0.26
21.36
36.22
43.68
44.20
39.19
30.64
20.69
11.17
3.33
-2.27
-5.59
-6.97
-6.97
-6.26
-5.49
-5.15
-5.42
-6.16
-6.91
-7.15
-6.47
-4.72
-2.06
1.18
4.56
7.71
10.28
12.09
13.07
13.29
12.93
12.25
11.54
11.01
10.83
11.04
11.57
12.25
12.79
12.94
12.49
11.45
10.01
8.49
7.16
6.17
5.49
4.91
4.19
3.14
1.68
-0.16
-2.18
-4.15
-5.72
-6.61
-6.64
-5.76
-4.15
-2.12
0.02
2.03
3.86
5.62
7.43
9.33
11.18
12.69
13.60
13.78
13.33
12.46
11.42
10.37
9.34
8.33
7.46
6.93
7.05
7.96
9.52
11.31
12.73
13.24
12.50
10.50
7.51
3.95
0.20
-3.41
-6.73
-9.68
-12.18
-14.07
-15.17
-15.32
-14.48
-12.78
-10.58
-8.27
-6.18
-4.41
-2.84
-1.19
0.77
3.10
5.70
8.36
10.91
13.27
15.45
17.38
18.90
19.76
19.71
18.70
16.93
14.77
12.64
10.74
9.05
7.34
5.32
2.85
0.02
-2.88
-5.51
-7.65
-9.25
-10.41
-11.24
-11.70
-11.63
-10.75
-8.90
-6.14
-2.78
0.70
3.79
6.11
7.39
7.57
6.70
5.04
2.97
0.97
-0.49
-1.06
-0.61
0.72
2.60
4.59
6.23
7.16
7.23
6.58
5.64
5.08
5.59
7.66
11.34
16.15
21.21
25.44
27.85
27.74
24.79
18.96
10.54
0.04
-11.67
-23.23
-32.98
-39.17
-40.49
-36.59
-28.34
-17.61
-6.78
2.03
7.52
9.39
8.20
4.96
0.73
-3.54
-7.05
-9.12
-9.22
-7.05
-2.79
2.91
9.04
14.49
18.41
20.40
20.59
19.50
17.81
16.07
14.61
13.46
12.41
11.16
9.49
7.29
4.64
1.74
-1.20
-3.92
-6.25
-8.04
-9.22
-9.71
-9.52
-8.66
-7.20
-5.29
-3.09
-0.82
1.34
3.27
4.95
6.42
7.72
8.82
9.58
9.85
9.58
8.83
7.85
6.89
6.15
5.70
5.46
5.34
5.28
5.32
5.54
5.96
6.53
7.05
7.29
7.08
6.36
5.20
3.77
2.18
0.48
-1.33
-3.23
-5.08
-6.63
-7.51
-7.50
-6.53
-4.82
-2.70
-0.49
1.66
3.84
6.28
9.13
12.38
15.73
18.72
20.96
22.26
22.76
22.85
23.00
23.64
25.02
27.22
30.14
33.46
36.57
38.61
38.54
35.43
28.69
18.15
4.03
-13.13
-32.52
-52.83
-72.16
-88.01
-97.69
-98.99
-90.85
-73.85
-50.22
-23.37
2.89
25.22
41.39
50.68
53.91
53.09
50.77
49.24
49.98
53.24
58.31
63.86
68.48
71.03
70.69
66.86
59.04
46.89
30.49
10.69
-10.79
-31.59
-49.35
-62.33
-69.89
-72.58
-71.73
-69.05
-66.04
-63.74
-62.62
-62.68
-63.54
-64.72
-65.80
-66.59
-67.17
-67.75
-68.48
-69.24
-69.55
-68.75
-66.27
-61.90
-55.94
-49.01
-41.84
-34.94
-28.48
-22.33
-16.27
-10.20
-4.30
1.05
5.41
8.49
10.26
10.93
10.87
10.43
9.92
9.51
9.32
9.42
9.85
10.68
11.93
13.53
15.32
17.01
18.26
18.76
18.34
17.01
14.92
12.37
9.60
6.79
3.95
1.10
-1.72
-4.31
-6.26
-7.16
-6.68
-4.75
-1.67
2.04
5.80
9.14
11.86
13.97
15.62
16.92
17.92
18.56
18.83
18.79
18.62
18.54
18.65
18.89
19.06
18.94
18.46
17.74
17.02
16.47
16.03
15.46
14.47
12.92
10.99
9.05
7.47
6.37
5.61
4.92
4.05
3.00
1.94
1.06
0.47
0.14
0.09
0.48
1.67
4.03
7.69
12.27
16.94
20.68
22.77
23.04
22.04
20.70
19.90
19.97
20.55
20.69
19.35
15.83
10.23
3.41
-3.32
-8.71
-12.13
-13.74
-14.46
-15.48
-17.79
-21.77
-27.01
-32.48
-36.88
-38.92
-37.53
-32.27
-24.05
-15.65
-11.54
-16.39
-32.55
-57.97
-85.68
-105.68
-108.59
-89.29
-48.86
6.04
65.79
121.08
165.15
194.43
207.94
206.15
190.39
162.73
126.15
84.54
42.23
3.29
-29.45
-54.95
-74.14
-89.13
-102.11
-114.20
-124.92
-132.52
-134.94
-130.92
-120.54
-105.23
-87.09
-68.30
-50.63
-35.23
-22.81
-13.71
-8.00
-5.45
-5.45
-6.95
-8.63
-9.19
-7.64
-3.66
2.42
9.77
17.47
24.91
31.94
38.83
45.90
53.19
60.20
66.00
69.51
69.92
67.04
61.36
53.95
46.10
39.03
33.54
29.90
27.88
26.90
26.23
25.31
23.87
22.03
20.11
18.39
16.90
15.33
13.16
10.02
5.87
1.07
-3.77
-7.89
-10.37
-10.07
-5.80
3.17
16.41
31.89
46.26
56.05
59.05
55.31
47.06
37.56
29.71
24.97
23.37
24.11
26.41
29.83
34.07
38.52
42.02
43.15
40.89
35.07
26.63
17.22
8.60
2.10
-1.72
-3.10
-2.91
-2.45
-3.22
-6.60
-13.57
-24.45
-38.76
-55.56
-73.87
-93.10
-113.00
-133.17
-152.57
-169.20
-180.71
-185.32
-182.75
-174.45
-162.86
-150.12
-137.16
-123.51
-108.09
-90.33
-70.77
-50.88
-32.10
-15.14
0.16
14.26
27.15
38.08
45.93
49.98
50.47
48.66
46.03
43.68
41.92
40.38
38.39
35.18
29.81
21.14
8.25
-8.61
-27.08
-42.77
-50.73
-47.80
-34.53
-15.20
4.22
19.05
28.07
33.59
39.32
47.69
58.33
68.63
75.89
79.32
80.59
82.42
86.60
92.56
98.01
100.77
100.41
98.54
97.58
98.78
101.07
101.41
96.47
84.19
64.54
39.00
9.85
-20.34
-48.49
-70.91
-83.69
-83.97
-71.39
-48.87
-21.86
3.47
22.21
32.06
33.35
28.24
19.51
9.70
0.62
-6.64
-11.53
-13.75
-13.15
-9.73
-3.98
2.79
8.56
11.24
9.56
3.98
-3.42
-9.74
-12.64
-11.40
-7.12
-2.05
1.47
1.84
-1.56
-8.69
-19.06
-32.01
-46.55
-61.24
-74.31
-83.90
-88.64
-87.94
-82.18
-72.43
-60.15
-46.73
-33.13
-19.83
-6.76
6.39
19.92
33.79
47.43
59.79
69.52
75.22
75.77
70.57
59.67
43.84
24.46
3.36
-17.52
-36.45
-51.94
-62.89
-68.45
-68.05
-61.58
-49.65
-33.69
-15.90
1.27
15.65
25.83
31.36
32.53
30.15
25.36
19.54
14.30
11.25
11.65
15.93
23.43
32.63
41.66
48.90
53.35
54.58
52.46
46.96
38.25
26.84
13.72
0.20
-12.42
-23.03
-30.84
-35.24
-35.77
-32.37
-25.58
-16.69
-7.47
0.43
6.18
10.11
13.48
17.79
24.01
32.11
41.00
49.05
54.63
56.67
54.97
50.15
43.36
35.93
29.03
23.43
19.58
17.64
17.53
19.01
21.68
25.02
28.38
31.05
32.28
31.46
28.31
23.06
16.51
9.80
4.04
-0.18
-2.93
-4.78
-6.37
-8.05
-9.72
-11.00
-11.55
-11.29
-10.43
-9.43
-8.95
-9.86
-12.98
-18.76
-26.83
-35.87
-43.96
-49.30
-50.93
-48.98
-44.44
-38.60
-32.61
-27.38
-23.61
-21.84
-22.23
-24.24
-26.56
-27.41
-25.25
-19.52
-10.83
-0.66
9.38
18.10
24.92
29.62
32.11
32.17
29.58
24.42
17.22
9.07
1.39
-4.50
-7.79
-8.43
-7.08
-4.82
-2.73
-1.59
-1.74
-3.11
-5.29
-7.59
-9.19
-9.27
-7.43
-3.95
0.10
3.12
3.61
0.81
-4.86
-11.88
-18.18
-21.96
-22.36
-19.71
-15.20
-10.35
-6.39
-4.01
-3.29
-3.84
-4.99
-5.99
-6.20
-5.19
-2.86
0.52
4.44
8.28
11.54
13.98
15.73
17.17
18.77
20.82
23.31
25.81
27.66
28.07
26.58
23.19
18.40
12.94
7.41
2.11
-2.94
-7.84
-12.58
-16.94
-20.56
-22.98
-23.83
-22.94
-20.52
-17.32
-14.62
-13.82
-15.77
-20.29
-26.02
-30.87
-32.93
-31.22
-25.95
-18.15
-9.04
0.54
10.16
19.48
27.93
34.60
38.61
39.54
37.79
34.50
31.01
28.39
26.96
26.34
25.73
24.33
21.74
18.10
14.01
10.17
7.05
4.62
2.39
-0.38
-4.23
-9.24
-14.96
-20.67
-25.69
-29.63
-32.47
-34.42
-35.73
-36.44
-36.45
-35.53
-33.50
-30.28
-25.92
-20.64
-14.78
-8.88
-3.61
0.37
2.59
2.96
1.82
-0.17
-2.39
-4.37
-6.02
-7.30
-8.15
-8.38
-7.70
-5.95
-3.31
-0.29
2.48
4.53
5.74
6.35
6.70
7.11
7.80
8.98
10.79
13.26
16.18
19.13
21.51
22.86
23.17
22.97
22.96
23.51
24.22
24.07
21.99
17.46
10.88
3.40
-3.49
-8.83
-12.52
-15.24
-18.06
-20.92
-22.90
-23.17
-22.06
-20.83
-20.98
-23.24
-27.10
-31.30
-34.35
-35.38
-34.77
-33.82
-33.88
-35.83
-39.70
-44.76
-48.72
-49.07
-43.88
-31.42
-12.65
8.85
28.06
40.65
44.16
38.13
23.89
4.38
-15.76
-31.45
-36.69
-26.56
0.47
41.17
88.01
131.66
164.65
180.07
176.41
157.32
128.96
96.99
64.83
34.02
5.44
-19.14
-37.06
-45.66
-44.53
-36.86
-28.87
-27.14
-35.94
-56.24
-85.82
-120.13
-153.46
-180.33
-196.29
-198.00
-183.48
-152.69
-109.16
-59.72
-12.12
27.53
56.09
73.52
82.07
84.85
84.41
80.58
70.76
52.49
24.81
-11.59
-54.83
-101.99
-149.02
-184.52
-195.73
-175.55
-126.21
-58.16
15.01
79.98
125.84
146.01
139.84
114.51
77.76
40.33
13.90
7.35
23.39
57.38
99.20
137.27
162.07
165.74
148.16
116.34
80.89
51.35
32.92
25.70
26.04
28.27
26.69
18.52
4.00
-14.36
-32.86
-48.35
-58.91
-64.31
-66.24
-68.25
-74.47
-88.37
-111.42
-141.40
-173.55
-200.75
-215.06
-209.94
-182.83
-136.70
-78.24
-15.06
48.02
106.91
159.02
202.71
237.31
262.54
277.00
280.32
274.04
262.99
248.76
230.43
205.34
171.60
128.61
74.81
10.02
-63.48
-138.28
-209.07
-271.43
-322.24
-359.05
-366.57
-337.60
-278.83
-224.18
-183.69
-157.59
-137.58
-120.05
-103.27
-86.94
-73.77
-65.63
-61.77
-56.63
-47.91
-35.99
-23.25
-11.49
-1.61
4.68
6.69
5.38
4.91
6.80
10.85
15.84
21.11
26.39
30.53
33.00
34.29
37.03
42.07
48.82
55.80
61.79
65.91
67.30
66.15
63.35
60.49
57.76
53.96
48.29
40.72
31.73
22.00
12.92
5.44
-0.22
-5.22
-12.18
-21.69
-32.88
-44.27
-53.98
-59.27
-58.26
-50.57
-37.65
-23.50
-9.73
3.23
15.30
27.37
42.36
63.21
91.61
127.04
165.12
204.01
243.09
282.27
309.46
314.54
294.74
257.07
226.45
204.33
186.70
170.21
147.17
116.48
81.82
48.52
21.34
2.64
-10.23
-19.40
-28.04
-40.35
-58.83
-82.54
-107.73
-129.59
-144.74
-154.36
-160.24
-165.27
-172.56
-183.03
-194.96
-205.35
-211.75
-213.51
-212.42
-208.74
-201.13
-187.25
-164.48
-132.04
-92.39
-51.17
-15.38
8.88
19.90
20.19
14.51
7.74
2.79
0.16
-1.22
-2.56
-4.34
-5.72
-5.54
-3.24
0.79
5.43
9.67
13.33
17.21
22.72
31.01
42.28
55.37
68.16
78.35
84.28
85.60
83.24
78.93
74.39
70.65
67.79
65.16
61.94
57.66
52.40
46.74
41.43
37.15
34.33
33.18
33.74
35.86
39.17
43.09
46.93
50.00
51.89
52.61
52.54
52.28
52.43
53.29
54.80
56.58
58.01
58.39
56.92
52.81
45.39
34.38
20.12
3.65
-13.33
-28.92
-41.40
-49.77
-54.05
-55.37
-55.73
-57.48
-62.53
-71.77
-84.63
-99.25
-113.05
-123.52
-128.94
-128.72
-123.23
-113.58
-101.23
-87.85
-75.14
-64.59
-57.17
-52.96
-51.05
-49.78
-47.35
-42.58
-35.35
-26.63
-18.03
-11.01
-6.28
-3.56
-1.90
-0.21
2.14
5.10
8.09
10.45
11.79
12.19
12.01
11.61
11.11
10.36
9.12
7.27
4.98
2.64
0.67
-0.67
-1.48
-2.09
-2.98
-4.45
-6.41
-8.34
-9.44
-8.90
-6.36
-2.00
3.36
8.63
12.79
15.23
15.95
15.40
14.30
13.38
13.24
14.23
16.41
19.50
22.83
25.52
26.72
25.96
23.36
19.61
15.76
12.69
10.88
10.25
10.34
10.67
10.97
11.28
11.80
12.73
14.14
15.95
18.04
20.35
22.85
25.45
27.85
29.54
29.95
28.78
26.19
22.85
19.66
17.35
16.23
16.03
16.08
15.68
14.52
12.60
10.11
7.21
3.96
0.43
-3.13
-6.26
-8.48
-9.51
-9.57
-9.55
-10.61
-13.71
-19.05
-25.90
-32.87
-38.39
-40.95
-39.81
-35.39
-29.00
-22.17
-16.04
-11.34
-8.70
-9.02
-12.71
-20.08
-31.52
-47.17
-66.33
-86.96
-105.86
-119.24
-123.79
-116.64
-97.40
-69.57
-39.92
-16.10
-3.52
-3.42
-12.64
-24.98
-31.78
-25.67
-3.62
32.24
75.63
118.55
153.18
173.39
167.19
129.38
68.10
3.22
-45.46
-68.37
-66.79
-48.45
-20.62
10.97
43.98
77.92
108.48
131.16
142.15
140.31
127.88
109.63
90.73
76.14
68.20
66.39
67.89
69.33
68.77
66.27
63.11
60.38
58.97
53.51
40.02
17.62
-11.18
-42.26
-71.48
-95.12
-111.01
-117.99
-115.54
-103.91
-85.24
-62.97
-40.64
-20.91
-6.20
2.42
5.36
4.34
2.16
1.00
2.00
5.19
9.72
14.22
17.42
18.01
14.99
8.17
-2.59
-16.82
-33.15
-49.48
-63.64
-73.76
-79.55
-82.22
-80.91
-76.33
-70.23
-63.99
-57.68
-52.24
-46.01
-37.83
-27.10
-13.42
3.25
21.69
39.95
55.75
67.00
72.69
72.63
67.63
59.30
49.07
38.35
28.69
21.70
18.59
19.81
24.16
29.43
33.40
34.43
32.08
27.20
21.36
16.18
12.57
10.16
7.90
4.95
0.80
-4.56
-10.83
-17.32
-22.95
-26.43
-26.65
-22.60
-13.42
0.53
17.51
32.27
38.32
32.43
16.77
-2.81
-21.82
-37.41
-48.55
-55.85
-58.95
-58.01
-53.18
-45.12
-35.37
-26.16
-19.19
-15.21
-13.74
-13.34
-12.30
-9.10
-3.35
3.97
10.86
15.46
16.47
13.53
7.29
-0.85
-8.91
-15.10
-18.47
-19.03
-17.44
-14.74
-12.00
-10.09
-9.50
-10.11
-11.40
-12.59
-12.91
-11.82
-9.27
-5.81
-2.40
-0.11
0.39
-1.02
-3.95
-7.77
-11.88
-15.88
-19.59
-22.81
-25.17
-26.07
-24.91
-21.37
-15.71
-8.71
-1.47
5.00
10.01
13.31
14.94
15.08
13.93
11.76
8.94
6.00
3.48
1.73
0.82
0.42
0.09
-0.57
-1.62
-2.77
-3.46
-3.16
-1.57
1.21
4.66
8.02
10.47
11.47
10.86
8.90
6.20
3.41
1.10
-0.43
-1.18
-1.30
-1.04
-0.61
-0.24
-0.11
-0.42
-1.30
-2.73
-4.54
-6.40
-8.01
-9.22
-10.08
-10.83
-11.74
-12.90
-14.15
-15.12
-15.38
-14.60
-12.69
-9.75
-5.99
-1.67
3.00
7.77
12.38
16.55
20.08
22.93
25.28
27.47
29.83
32.50
35.29
37.72
39.23
39.37
38.07
35.64
32.68
29.82
27.50
25.85
24.69
23.66
22.36
20.53
18.06
14.97
11.39
7.57
3.84
0.54
-2.12
-4.03
-5.25
-5.87
-6.04
-5.78
-5.13
-4.10
-2.83
-1.67
-1.08
-1.33
-2.44
-4.11
-5.87
-7.34
-8.25
-8.39
-7.45
-4.74
0.82
10.01
22.52
36.61
49.25
57.40
58.76
52.41
38.99
20.84
1.04
-17.31
-31.56
-40.22
-42.53
-39.22
-32.65
-26.08
-21.95
-21.72
-25.40
-31.62
-38.21
-41.55
-38.10
-25.90
-5.42
21.03
49.05
73.53
90.50
98.10
98.28
94.50
89.49
78.51
58.26
29.13
-3.42
-28.31
-42.80
-47.41
-44.52
-38.03
-31.12
-24.89
-19.14
-13.19
-6.99
-1.94
0.95
0.77
-2.98
-9.91
-18.14
-25.49
-30.35
-32.27
-32.37
-31.75
-31.68
-33.28
-36.91
-41.39
-44.60
-44.40
-39.77
-31.76
-22.65
-15.44
-12.57
-14.58
-19.52
-23.85
-23.98
-17.83
-5.63
10.81
28.86
46.09
60.91
72.62
80.98
85.70
86.40
82.79
75.35
65.50
55.42
47.40
43.04
42.72
45.47
49.46
52.64
53.30
50.32
43.26
32.26
18.13
2.25
-13.67
-28.02
-39.84
-49.01
-56.12
-61.93
-66.78
-70.32
-71.72
-70.10
-65.07
-56.89
-46.38
-34.58
-22.56
-11.29
-1.65
5.61
9.95
11.27
9.99
7.02
3.60
0.83
-0.70
-1.14
-1.34
-2.57
-5.93
-11.81
-19.72
-28.44
-36.53
-42.81
-46.58
-47.79
-46.95
-44.91
-42.66
-41.15
-41.01
-42.48
-45.23
-48.32
-50.68
-51.64
-51.19
-49.97
-49.05
-49.45
-51.92
-56.71
-63.20
-70.54
-78.12
-85.57
-92.57
-98.67
-103.40
-106.44
-107.73
-106.39
-101.81
-93.93
-83.28
-70.48
-55.86
-39.51
-21.42
-1.57
21.51
48.55
78.63
109.30
137.80
162.36
182.60
199.15
213.15
227.49
243.88
261.78
278.63
291.36
297.64
296.03
285.59
254.19
197.37
121.75
42.85
-24.59
-73.91
-106.26
-126.68
-140.23
-149.74
-153.52
-149.17
-136.40
-117.86
-97.67
-79.18
-64.18
-53.25
-46.80
-44.01
-44.38
-47.46
-52.07
-55.83
-56.06
-51.64
-43.79
-35.27
-27.31
-19.40
-10.12
1.14
13.02
22.64
26.84
24.43
17.12
9.29
5.29
7.13
14.25
24.34
34.74
42.93
46.75
43.66
31.79
12.00
-12.12
-34.59
-49.30
-52.82
-46.17
-33.96
-21.85
-13.45
-8.34
-3.89
2.83
12.81
24.36
34.16
39.29
38.50
32.59
23.91
14.77
7.03
1.82
-0.48
-0.29
0.99
1.22
-1.72
-8.75
-18.86
-29.10
-35.93
-36.97
-32.22
-23.82
-14.80
-7.31
-1.76
2.75
7.28
12.03
16.04
17.96
17.07
13.96
10.39
8.38
9.12
12.51
17.20
21.39
23.75
23.99
22.97
22.09
22.53
24.52
27.22
29.09
28.56
24.80
18.13
10.00
2.32
-3.36
-6.51
-7.63
-7.80
-7.99
-8.58
-9.36
-9.84
-9.73
-9.16
-8.53
-8.19
-8.14
-7.98
-7.19
-5.43
-2.75
0.35
3.16
5.05
5.70
5.24
4.07
2.65
1.32
0.20
-0.80
-1.72
-2.53
-3.00
-2.89
-2.14
-0.96
0.22
0.95
1.00
0.49
-0.18
-0.59
-0.51
-0.06
0.37
0.39
-0.20
-1.29
-2.52
-3.54
-4.12
-4.28
-4.23
-4.15
-4.15
-4.17
-4.10
-3.80
-3.26
-2.58
-1.96
-1.62
-1.69
-2.20
-3.06
-4.12
-5.25
-6.38
-7.49
-8.60
-9.70
-10.72
-11.49
-11.85
-11.70
-11.01
-9.90
-8.58
-7.24
-6.03
-5.00
-4.16
-3.45
-2.83
-2.32
-1.96
-1.79
-1.84
-2.04
-2.29
-2.48
-2.54
-2.48
-2.42
-2.45
-2.65
-3.01
-3.45
-3.87
-4.14
-4.23
-4.11
-3.80
-3.35
-2.85
-2.44
-2.24
-2.36
-2.79
-3.43
-4.13
-4.72
-5.07
-5.09
-4.69
-3.82
-2.52
-0.97
0.52
1.61
2.07
1.84
1.11
0.18
-0.67
-1.26
-1.50
-1.36
-0.85
-0.02
0.98
1.87
2.38
2.31
1.68
0.75
-0.17
-0.83
-1.20
-1.40
-1.59
-1.84
-2.07
-2.16
-2.05
-1.82
-1.68
-1.85
-2.43
-3.29
-4.17
-4.76
-4.89
-4.52
-3.77
-2.83
-1.89
-1.07
-0.50
-0.23
-0.30
-0.70
-1.37
-2.15
-2.87
-3.36
-3.56
-3.46
-3.18
-2.82
-2.50
-2.25
-2.09
-1.98
-1.87
-1.70
-1.42
-0.96
-0.34
0.40
1.10
1.56
1.61
1.16
0.23
-1.02
-2.35
-3.53
-4.36
-4.77
-4.74
-4.32
-3.62
-2.74
-1.75
-0.71
0.32
1.31
2.16
2.78
3.08
3.02
2.67
2.10
1.45
0.80
0.21
-0.24
-0.51
-0.53
-0.26
0.20
0.69
0.95
0.82
0.23
-0.70
-1.75
-2.67
-3.30
-3.56
-3.48
-3.14
-2.67
-2.24
-2.04
-2.27
-3.02
-4.24
-5.67
-6.94
-7.66
-7.63
-6.85
-5.57
-4.11
-2.80
-1.80
-1.11
-0.66
-0.34
-0.08
0.12
0.31
0.51
0.81
1.28
1.96
2.76
3.54
4.10
4.31
4.16
3.78
3.34
3.01
2.81
2.66
2.44
2.03
1.41
0.62
-0.23
-1.01
-1.65
-2.12
-2.44
-2.71
-3.01
-3.40
-3.80
-4.05
-3.93
-3.28
-2.12
-0.68
0.70
1.68
2.09
1.90
1.27
0.38
-0.57
-1.46
-2.17
-2.63
-2.75
-2.51
-1.91
-1.04
-0.03
0.93
1.66
2.05
2.05
1.71
1.21
0.72
0.40
0.27
0.30
0.34
0.30
0.15
-0.09
-0.36
-0.60
-0.78
-0.91
-1.03
-1.16
-1.32
-1.51
-1.68
-1.80
-1.78
-1.57
-1.09
-0.32
0.70
1.88
3.08
4.19
5.11
5.85
6.30
6.44
6.44
6.51
6.82
7.39
8.21
9.24
10.48
11.75
12.94
14.06
15.24
16.55
17.99
19.57
21.38
23.57
25.84
27.98
30.05
32.26
34.76
37.59
40.87
44.89
49.98
55.15
59.69
63.76
67.99
72.63
77.38
81.93
86.47
91.77
96.34
99.35
101.40
103.05
102.97
97.69
83.27
57.09
19.08
-31.93
-92.95
-155.85
-210.53
-249.84
-271.97
-279.74
-278.44
-273.77
-275.38
-288.42
-310.79
-335.99
-358.35
-375.44
-387.39
-395.18
-366.35
-288.58
-178.90
-70.16
15.15
72.58
107.79
129.02
143.55
156.48
165.23
166.34
162.37
157.89
155.98
156.87
159.36
162.33
165.34
164.37
157.23
145.40
131.66
118.40
106.39
95.81
87.12
81.14
75.99
70.27
64.31
59.01
54.44
49.31
41.80
30.74
16.25
-1.25
-19.64
-35.33
-45.21
-48.47
-47.20
-45.13
-45.53
-49.41
-55.49
-60.37
-60.08
-52.14
-36.74
-16.58
4.46
22.83
36.43
44.79
48.59
49.09
47.44
44.49
40.77
36.69
32.82
29.85
28.38
28.62
30.10
31.75
32.39
31.29
28.59
25.29
22.73
21.91
22.93
24.96
26.67
26.90
25.19
21.94
18.11
14.61
11.96
10.07
8.50
6.75
4.67
2.38
0.29
-1.24
-2.00
-2.00
-1.48
-0.77
-0.21
-0.11
-0.69
-1.96
-3.78
-5.81
-7.66
-9.01
-9.70
-9.67
-9.06
-8.13
-7.12
-6.13
-5.19
-4.32
-3.56
-2.98
-2.59
-2.39
-2.37
-2.48
-2.62
-2.76
-2.89
-3.17
-3.79
-4.79
-6.18
-7.96
-10.10
-12.33
-14.32
-15.75
-16.46
-16.62
-16.34
-16.21
-17.25
-20.15
-24.67
-29.67
-33.75
-35.85
-35.85
-33.67
-30.15
-26.89
-24.90
-23.57
-21.26
-16.53
-9.18
-1.08
5.87
8.74
4.12
-9.69
-30.88
-54.89
-75.89
-88.17
-87.57
-70.02
-34.69
13.94
67.44
116.52
152.84
171.05
169.98
142.62
94.24
41.92
-0.91
-33.74
-61.55
-85.92
-104.75
-110.08
-96.63
-63.43
-16.04
33.79
75.65
104.82
118.35
119.51
116.65
116.81
122.63
130.62
134.48
125.53
103.27
74.10
46.90
28.21
19.36
17.29
17.44
10.52
-12.22
-53.46
-109.73
-173.68
-236.71
-290.71
-328.15
-326.39
-275.97
-191.32
-101.15
-28.68
17.56
40.27
46.95
45.51
41.27
32.75
16.98
-5.17
-28.02
-43.92
-46.62
-33.44
-6.34
30.37
67.39
95.94
111.89
116.50
113.75
107.75
101.30
95.79
91.10
84.20
72.47
55.80
36.74
18.66
4.10
-6.12
-11.16
-10.58
-5.57
2.23
11.10
19.30
24.54
24.10
14.50
-4.39
-27.27
-47.07
-59.63
-65.65
-68.71
-72.63
-79.47
-87.94
-93.11
-88.90
-73.33
-45.97
-10.40
27.10
59.56
81.19
89.29
85.01
71.77
53.17
31.77
8.96
-14.88
-37.31
-55.76
-68.07
-72.91
-70.65
-61.70
-49.39
-38.38
-31.19
-26.93
-23.22
-18.60
-13.85
-10.91
-12.37
-19.65
-31.48
-44.28
-53.94
-58.08
-56.50
-50.40
-41.93
-33.17
-25.51
-19.34
-14.55
-11.22
-10.00
-11.46
-15.50
-21.03
-26.30
-29.58
-29.67
-26.14
-19.20
-9.33
3.34
19.18
38.60
61.36
85.95
109.72
129.35
141.71
144.64
137.58
121.72
99.91
76.05
54.31
38.09
29.16
27.18
30.03
34.78
38.97
41.64
43.67
47.07
53.92
65.30
80.80
98.59
115.93
129.63
136.53
134.02
120.57
96.17
62.58
23.22
-17.28
-53.90
-82.09
-98.64
-102.37
-94.41
-77.93
-57.41
-37.31
-20.93
-9.63
-2.92
0.59
2.16
2.13
0.04
-4.71
-12.14
-21.15
-29.75
-35.57
-36.68
-32.04
-21.84
-7.37
9.27
25.50
38.79
47.29
50.33
48.70
44.33
39.46
35.63
33.09
30.99
28.21
24.09
18.66
12.31
5.29
-2.27
-9.94
-16.40
-19.86
-19.33
-16.05
-13.79
-17.28
-29.37
-48.80
-70.20
-86.87
-94.58
-93.99
-90.14
-89.09
-94.00
-103.31
-111.95
-114.62
-108.97
-96.61
-81.60
-67.71
-56.45
-46.98
-37.75
-28.36
-20.51
-17.32
-21.82
-35.38
-57.19
-84.69
-114.41
-142.78
-166.58
-182.92
-189.19
-183.40
-164.86
-135.02
-97.79
-59.11
-25.44
-1.82
9.75
10.75
5.21
-2.12
-7.51
-9.27
-7.45
-3.05
2.99
10.10
17.94
25.97
33.33
39.22
43.39
46.48
49.77
54.55
61.32
69.35
77.04
82.70
85.43
85.61
84.69
84.46
86.28
90.48
96.37
102.76
108.55
113.16
116.54
118.76
119.71
119.08
116.67
112.69
107.84
102.96
98.51
94.31
89.72
84.23
77.99
71.98
67.61
65.94
67.18
70.56
74.73
78.36
80.59
80.97
79.29
75.04
67.27
54.65
35.90
10.37
-21.39
-57.13
-93.14
-124.85
-148.15
-160.65
-162.46
-155.88
-144.01
-129.02
-111.32
-90.37
-66.71
-43.91
-28.73
-28.52
-47.26
-82.32
-124.32
-160.74
-181.08
-180.83
-161.97
-130.44
-92.43
-52.11
-11.72
27.05
61.51
88.04
103.76
108.39
104.79
97.81
92.01
89.83
91.64
95.83
99.66
100.45
96.70
88.63
77.80
66.15
55.08
45.97
39.07
33.16
26.05
16.03
3.09
-11.02
-23.48
-31.37
-30.77
-19.19
2.79
31.19
60.35
84.88
100.69
105.40
98.58
84.29
68.80
58.16
56.47
65.88
86.69
117.01
152.74
174.70
167.32
127.89
68.49
4.99
-52.74
-101.44
-140.90
-171.14
-192.07
-202.10
-199.94
-187.65
-171.10
-157.12
-150.32
-151.95
-160.65
-173.03
-183.67
-187.58
-182.18
-167.90
-146.98
-121.82
-94.50
-66.81
-40.47
-16.00
6.42
26.31
42.96
56.14
66.84
76.73
87.27
98.94
111.50
123.89
134.45
141.26
142.72
138.01
127.31
111.96
94.39
77.97
65.93
60.51
61.76
67.39
73.67
76.67
73.49
62.94
45.56
23.23
-0.93
-24.00
-44.14
-60.82
-74.14
-84.30
-91.16
-94.22
-92.80
-85.60
-72.44
-54.92
-35.95
-18.23
-3.35
8.43
17.60
24.89
32.20
40.88
51.10
61.95
72.36
81.47
88.67
93.60
88.55
70.19
42.05
12.54
-11.31
-26.94
-35.47
-39.91
-43.87
-50.43
-59.76
-70.10
-78.71
-83.53
-83.09
-77.37
-68.13
-58.46
-51.27
-46.99
-44.15
-40.43
-33.67
-22.41
-6.94
11.04
28.50
41.97
49.17
49.14
42.28
30.20
15.33
-0.05
-13.94
-24.79
-31.49
-33.44
-31.25
-26.80
-22.39
-19.36
-17.60
-15.06
-9.11
1.55
15.28
27.75
33.93
31.04
20.12
5.14
-8.50
-16.52
-17.38
-12.55
-5.43
-0.38
-0.28
-2.30
-3.95
-4.57
-5.99
-9.70
-16.29
-24.77
-32.70
-37.03
-35.46
-28.03
-16.42
-3.19
9.58
21.02
31.67
42.59
54.45
66.69
77.08
83.05
82.47
74.80
61.78
47.16
35.26
29.38
30.74
37.84
47.31
54.58
55.70
49.27
37.29
23.93
13.68
9.61
12.19
19.37
26.51
28.04
20.21
2.49
-23.13
-53.43
-84.60
-112.70
-127.93
-121.87
-96.23
-63.63
-38.63
-29.60
-36.38
-51.85
-65.70
-71.96
-67.62
-54.29
-35.96
-16.16
3.11
20.99
36.78
48.94
55.14
52.24
38.70
17.08
-5.96
-22.74
-28.79
-25.36
-18.92
-18.01
-28.95
-52.47
-82.44
-108.05
-118.62
-108.09
-77.03
-31.70
19.02
66.80
105.82
133.07
147.17
146.75
129.98
95.84
46.19
-12.85
-71.53
-119.18
-147.70
-154.23
-141.78
-117.49
-89.43
-63.80
-43.65
-29.37
-20.16
-15.32
-14.46
-16.95
-21.22
-24.63
-24.24
-17.92
-5.19
12.56
32.67
51.88
67.30
76.83
79.63
76.33
68.84
59.95
52.47
48.61
49.55
55.63
66.79
82.84
103.23
126.47
149.53
167.95
176.83
172.41
153.54
122.33
83.70
43.95
8.99
-17.27
-33.64
-41.71
-45.04
-47.89
-53.81
-64.46
-79.01
-94.36
-106.13
-110.23
-104.40
-89.30
-68.51
-47.44
-31.60
-24.60
-26.98
-36.17
-47.48
-55.84
-57.62
-51.80
-40.47
-28.50
-22.35
-28.13
-49.42
-85.36
-130.02
-173.63
-205.32
-216.45
-203.10
-167.01
-114.61
-55.02
2.44
50.31
84.16
102.91
108.31
103.95
94.05
82.38
71.84
64.44
61.65
64.38
72.51
84.22
95.83
102.64
100.62
88.15
66.90
41.23
16.53
-2.71
-14.31
-18.48
-17.01
-12.12
-5.58
1.40
7.74
12.16
13.27
10.18
3.26
-5.76
-14.47
-21.00
-24.93
-27.37
-29.82
-32.79
-34.98
-33.65
-26.21
-11.91
7.31
27.43
44.16
54.77
59.13
59.38
58.69
59.76
63.97
71.21
80.30
89.57
97.16
101.26
100.17
92.64
78.32
58.10
34.12
9.38
-13.14
-31.30
-44.29
-52.65
-57.70
-61.00
-63.75
-66.70
-70.24
-74.68
-80.32
-87.23
-94.75
-100.95
-102.38
-94.88
-75.38
-44.00
-5.66
30.00
51.11
47.69
16.05
-38.77
-103.98
-163.06
-201.35
-210.56
-190.69
-148.78
-95.55
-41.62
5.23
41.07
65.30
79.41
85.66
86.32
83.46
79.01
74.88
72.80
73.84
78.01
84.00
89.27
90.97
87.03
76.92
61.94
44.67
28.08
14.72
6.05
2.20
2.03
3.59
4.69
3.67
0.10
-4.97
-9.53
-11.45
-9.44
-3.34
6.05
17.38
29.03
39.21
46.05
48.06
45.04
38.72
32.71
31.13
36.58
48.70
64.00
77.46
84.86
84.59
78.02
68.13
57.59
47.15
35.35
19.50
-2.60
-30.87
-62.11
-90.37
-108.91
-112.67
-100.66
-76.80
-48.84
-25.60
-13.78
-15.77
-29.04
-47.31
-63.00
-70.00
-65.72
-52.20
-35.66
-24.64
-27.03
-46.82
-81.91
-124.12
-161.77
-183.83
-183.99
-162.73
-126.52
-84.65
-45.34
-13.22
11.08
29.20
42.80
51.98
55.50
52.37
43.55
32.56
24.21
22.35
27.78
37.68
46.86
50.54
46.76
37.30
26.64
19.62
19.19
25.29
35.30
45.52
52.93
56.24
55.98
53.95
52.15
51.93
53.33
55.01
54.81
50.90
43.11
33.54
26.02
24.17
29.18
38.51
46.68
47.85
39.02
21.86
2.16
-12.95
-18.26
-12.54
1.59
19.65
37.57
52.95
64.81
72.63
75.53
72.37
62.44
46.12
24.87
0.68
-24.49
-48.85
-70.41
-86.70
-95.27
-94.69
-85.70
-71.41
-56.36
-44.71
-38.52
-37.14
-37.68
-36.49
-30.74
-19.57
-4.56
10.40
19.67
17.37
-0.73
-34.87
-79.97
-126.15
-161.57
-176.51
-166.97
-135.91
-91.66
-44.23
-1.49
32.75
58.37
76.79
88.82
93.84
90.71
79.59
63.15
46.20
33.86
29.29
32.22
39.13
45.04
45.95
40.64
30.95
20.67
13.39
10.72
11.77
13.88
14.20
11.29
5.69
-0.48
-4.80
-5.74
-3.26
1.37
6.35
10.19
12.20
12.51
12.01
12.07
14.20
19.45
27.75
37.42
45.62
49.42
47.50
41.05
33.55
29.14
30.47
37.25
46.26
52.98
53.70
47.11
34.50
18.58
1.95
-14.13
-29.81
-45.96
-63.03
-80.26
-95.56
-106.24
-110.19
-106.88
-97.91
-86.57
-76.86
-72.21
-74.44
-83.23
-96.03
-108.47
-115.32
-112.19
-97.46
-74.04
-49.47
-33.61
-34.39
-53.67
-85.56
-118.47
-140.08
-142.75
-126.40
-97.54
-65.27
-36.78
-14.71
2.37
17.41
32.08
45.49
55.00
58.21
54.83
47.36
40.13
37.49
42.03
53.79
70.72
90.05
109.80
129.39
148.95
167.94
184.05
193.21
190.96
174.62
144.88
106.13
65.00
28.24
0.71
-15.65
-21.47
-18.93
-10.64
1.02
13.91
25.99
35.36
40.58
41.08
37.23
29.98
20.45
9.68
-1.29
-11.12
-18.08
-20.36
-16.79
-7.50
5.79
20.20
32.53
40.29
42.32
38.93
31.61
22.45
13.58
6.63
2.30
0.27
-0.82
-2.96
-8.33
-18.70
-35.00
-57.10
-84.01
-114.24
-146.10
-177.76
-206.82
-230.00
-243.19
-242.12
-223.52
-186.39
-132.81
-68.06
0.04
62.61
111.47
141.04
149.71
140.21
118.73
92.93
69.58
52.71
43.21
39.75
40.49
44.48
51.75
62.57
76.30
90.81
102.86
109.41
108.79
101.38
89.29
75.31
61.86
50.50
41.92
36.28
33.45
33.03
34.45
37.05
40.34
44.04
47.78
50.55
50.40
44.80
31.83
11.52
-13.42
-38.05
-56.71
-64.90
-60.71
-45.28
-22.34
2.58
23.20
33.66
29.87
11.03
-19.54
-54.86
-86.34
-106.79
-112.99
-106.54
-92.76
-77.97
-66.89
-61.21
-59.94
-60.77
-61.55
-61.15
-59.28
-56.03
-51.44
-45.41
-37.68
-27.95
-16.00
-1.62
15.00
32.60
48.41
58.27
57.55
42.75
13.28
-27.55
-72.31
-111.12
-134.58
-136.75
-117.15
-80.70
-35.67
9.19
46.80
73.41
88.30
92.39
87.30
75.08
58.57
41.83
29.08
22.34
21.52
24.48
27.55
27.17
21.55
11.32
-0.10
-8.71
-13.38
-14.38
-12.56
-9.79
-7.88
-7.87
-9.53
-10.28
-7.10
-0.42
9.00
20.88
33.50
44.09
49.71
48.63
43.37
39.18
38.99
46.28
64.38
92.77
127.13
161.07
177.28
163.33
136.80
109.45
80.94
53.57
28.98
7.88
-9.85
-25.18
-38.04
-48.95
-62.46
-81.33
-104.06
-127.15
-145.97
-156.40
-156.39
-145.47
-125.80
-103.88
-84.85
-69.93
-57.96
-46.59
-33.92
-19.72
-4.71
9.38
18.84
21.12
15.81
3.61
-13.57
-32.38
-48.00
-54.29
-45.66
-19.94
21.27
72.71
126.12
172.49
204.47
218.05
213.23
193.31
163.16
128.17
93.31
62.26
37.22
18.80
6.32
-1.92
-8.17
-14.48
-22.26
-31.55
-41.16
-49.52
-55.59
-59.38
-61.77
-63.96
-66.83
-70.82
-75.60
-80.41
-84.60
-88.12
-91.33
-94.50
-97.49
-99.45
-99.44
-96.51
-90.03
-80.01
-67.06
-51.81
-34.39
-14.72
9.59
37.24
62.97
80.28
85.44
78.99
64.70
47.31
30.06
13.33
-3.43
-20.27
-35.87
-48.14
-55.61
-58.09
-54.41
-46.73
-38.50
-33.05
-32.34
-35.70
-40.63
-43.75
-41.25
-30.34
-11.39
12.09
34.26
48.43
50.13
38.11
14.78
-13.42
-38.08
-52.16
-51.46
-35.01
-5.10
34.97
81.14
124.00
154.02
167.12
164.68
150.19
130.33
105.77
77.96
49.64
23.86
3.52
-9.52
-15.49
-17.03
-17.83
-21.49
-29.37
-41.09
-55.15
-69.05
-80.38
-88.00
-92.44
-95.11
-97.61
-100.11
-101.82
-101.57
-97.94
-89.78
-76.79
-59.70
-39.84
-18.88
1.76
20.55
35.70
45.84
50.72
51.40
49.86
48.32
48.61
51.74
57.31
63.28
66.45
64.59
57.57
46.70
33.45
19.21
4.51
-9.54
-21.24
-29.28
-32.63
-31.05
-24.21
-14.70
-6.18
-1.77
-2.69
-8.18
-16.63
-24.82
-28.73
-25.13
-13.40
4.56
24.90
42.77
53.03
50.15
31.45
-1.33
-42.28
-83.11
-114.78
-129.80
-124.57
-95.01
-47.79
1.98
40.27
62.51
72.67
76.98
78.95
78.25
73.98
63.78
48.82
33.59
22.92
18.76
19.32
20.57
18.41
10.62
-3.23
-20.54
-36.94
-48.52
-53.79
-53.77
-50.87
-47.54
-45.31
-45.13
-46.37
-47.16
-45.38
-39.69
-30.06
-17.62
-4.22
8.25
18.13
24.90
29.21
32.19
34.76
37.38
40.37
44.46
50.94
61.03
75.32
92.84
110.84
125.53
133.47
133.05
124.85
110.76
92.50
70.36
43.19
9.81
-29.23
-70.57
-108.56
-137.16
-152.46
-154.07
-145.17
-130.93
-116.28
-104.20
-94.94
-86.72
-77.42
-66.74
-57.26
-53.83
-61.02
-79.79
-105.33
-127.67
-135.45
-120.96
-84.03
-32.39
21.78
67.15
97.62
113.59
119.92
122.30
124.16
125.74
125.22
120.67
111.49
98.72
84.14
69.28
54.77
40.41
25.78
10.93
-3.35
-15.67
-24.44
-28.47
-27.56
-22.69
-15.96
-9.98
-6.97
-7.87
-11.97
-17.20
-21.24
-22.53
-20.94
-17.64
-14.36
-12.55
-12.89
-15.15
-18.57
-22.22
-25.15
-26.39
-24.91
-19.65
-9.74
5.04
23.90
44.89
65.02
80.56
87.76
83.70
67.13
39.04
2.76
-36.65
-73.33
-101.88
-118.53
-121.95
-113.50
-96.75
-76.64
-58.21
-45.46
-40.37
-42.46
-48.86
-55.13
-56.91
-51.87
-41.25
-30.03
-25.33
-33.24
-55.49
-87.64
-119.96
-140.70
-140.40
-115.28
-68.08
-6.69
58.87
119.19
167.38
199.60
215.07
215.68
205.55
190.12
174.82
163.57
157.64
155.64
154.31
149.93
139.77
122.79
99.95
73.63
47.06
23.31
4.81
-7.38
-13.69
-15.89
-16.46
-17.67
-21.02
-26.55
-33.21
-39.08
-42.46
-42.60
-40.05
-36.22
-32.48
-29.72
-27.71
-25.80
-23.18
-19.54
-15.10
-10.39
-5.62
-0.18
6.77
16.50
26.29
32.72
32.77
25.70
12.77
-3.87
-20.39
-37.08
-54.02
-70.65
-85.30
-96.04
-100.01
-95.80
-84.01
-67.06
-48.69
-32.04
-19.24
-10.58
-5.05
-0.88
3.44
9.01
16.24
24.33
31.51
34.84
31.26
18.98
-1.18
-25.66
-49.04
-65.95
-73.20
-70.27
-59.14
-42.64
-23.30
-2.76
17.62
36.18
50.86
59.69
61.77
57.70
49.48
39.68
30.55
23.18
17.80
14.08
11.66
10.33
10.05
10.91
13.01
16.47
21.00
26.19
31.61
36.80
41.15
43.94
44.67
43.33
40.49
36.70
32.54
28.32
23.80
18.14
10.34
-0.07
-12.48
-25.47
-37.89
-48.88
-57.96
-64.79
-69.12
-70.64
-68.84
-63.07
-50.52
-31.31
-9.21
9.99
21.98
25.98
23.63
16.66
6.47
-5.99
-20.23
-35.34
-49.96
-62.49
-71.59
-76.59
-77.36
-74.02
-66.81
-56.44
-43.68
-29.19
-13.52
2.63
18.29
32.31
43.53
50.61
51.89
45.93
32.19
11.63
-13.02
-37.73
-58.10
-70.54
-73.20
-66.24
-51.08
-29.54
-3.34
25.60
54.66
80.53
99.80
110.19
111.51
105.99
97.46
89.77
85.20
83.62
82.88
80.04
72.85
60.77
45.13
28.39
13.05
0.53
-9.20
-17.28
-25.07
-33.33
-42.01
-50.35
-57.37
-62.22
-64.29
-63.26
-59.23
-52.83
-45.16
-37.55
-31.03
-25.93
-21.97
-18.69
-16.05
-14.60
-14.96
-17.13
-19.91
-21.11
-18.51
-11.02
0.64
14.04
25.96
33.50
34.97
30.16
20.22
7.07
-7.06
-20.04
-30.15
-36.31
-38.22
-36.39
-31.96
-26.43
-21.29
-17.70
-16.27
-17.01
-19.32
-22.28
-24.80
-25.99
-25.38
-23.02
-19.40
-15.30
-11.41
-8.25
-6.05
-4.86
-4.78
-6.05
-9.04
-14.07
-21.17
-29.91
-39.47
-48.70
-56.40
-61.56
-63.56
-62.20
-57.79
-51.12
-43.25
-35.35
-28.39
-22.90
-18.80
-15.50
-12.08
-7.72
-1.94
5.27
13.46
21.87
29.69
36.18
40.90
43.76
45.07
45.52
46.19
48.31
52.96
60.50
70.25
80.34
88.32
92.02
90.50
84.43
75.76
66.81
59.28
53.66
49.47
45.96
42.86
40.70
40.49
43.00
48.16
54.87
61.28
65.44
66.02
62.66
56.06
47.69
39.20
31.90
26.36
22.21
18.36
13.42
6.18
-3.92
-16.61
-30.81
-44.84
-56.77
-64.75
-67.48
-64.53
-56.71
-45.94
-34.89
-26.11
-21.21
-20.22
-21.69
-23.33
-22.98
-19.56
-13.47
-6.38
-0.51
2.24
1.03
-3.64
-10.23
-16.78
-21.70
-24.38
-25.30
-25.67
-26.69
-28.96
-32.14
-35.33
-37.52
-38.16
-37.12
-34.48
-30.23
-24.23
-16.77
-9.07
-3.21
-1.29
-4.14
-10.47
-17.09
-20.15
-16.92
-6.79
8.66
26.67
44.57
60.45
73.28
82.43
87.46
88.09
84.62
77.98
69.55
60.77
52.68
45.81
40.17
35.51
31.36
27.11
22.23
16.44
9.85
3.02
-3.22
-8.10
-11.19
-12.50
-12.45
-11.56
-10.30
-8.96
-7.69
-6.68
-6.27
-6.91
-8.75
-11.26
-13.02
-12.17
-7.36
1.21
11.40
19.74
22.97
19.73
11.36
1.40
-6.12
-8.60
-6.04
-0.72
4.17
6.21
4.76
0.78
-4.20
-9.29
-14.82
-22.16
-32.82
-47.39
-64.96
-83.23
-99.25
-110.44
-115.35
-113.82
-106.68
-95.18
-80.67
-64.69
-49.31
-36.96
-29.90
-29.05
-33.11
-38.65
-41.26
-37.35
-25.63
-7.63
13.10
32.38
46.97
55.26
57.43
54.91
49.70
43.80
38.65
34.92
32.40
30.33
27.83
24.43
20.25
15.86
11.81
8.38
5.41
2.48
-0.80
-4.64
-9.11
-14.18
-19.80
-25.86
-32.02
-37.63
-41.92
-44.28
-44.60
-43.26
-40.74
-37.08
-31.58
-23.04
-10.62
5.39
23.16
39.85
52.71
60.29
62.79
61.66
58.50
54.18
48.61
41.31
32.17
21.96
11.97
3.20
-4.39
-11.93
-20.92
-32.23
-45.33
-58.33
-68.76
-74.61
-75.13
-70.88
-63.22
-53.54
-42.82
-31.49
-19.83
-8.24
2.49
11.45
18.02
22.27
25.04
27.57
30.89
35.45
41.11
47.46
54.20
61.27
68.45
75.08
79.87
81.39
78.73
72.17
63.12
53.70
45.83
40.65
38.27
37.99
38.65
38.97
38.04
35.81
33.41
33.15
37.69
48.93
66.92
89.54
113.12
133.79
148.84
157.51
160.72
160.28
157.90
154.62
150.70
146.07
140.68
134.57
127.56
118.86
106.79
89.18
64.28
31.87
-6.10
-45.87
-83.07
-114.33
-138.31
-155.71
-168.26
-177.42
-183.67
-186.65
-185.98
-182.04
-176.15
-169.93
-164.50
-159.85
-155.07
-148.98
-140.98
-131.25
-120.56
-109.62
-98.57
-86.98
-74.25
-60.14
-45.24
-30.93
-18.97
-10.77
-6.76
-6.22
-7.47
-8.53
-7.73
-4.16
2.23
10.88
20.92
31.42
41.58
50.69
58.06
63.17
65.72
65.78
63.88
60.88
57.74
55.19
53.35
51.60
48.75
43.40
34.69
22.71
8.56
-6.00
-19.28
-30.24
-38.75
-45.28
-50.37
-54.09
-56.12
-56.08
-54.00
-50.44
-46.16
-41.58
-36.48
-30.33
-22.92
-15.00
-8.20
-4.21
-3.57
-4.98
-5.70
-2.85
4.89
16.29
27.84
35.13
34.72
25.46
8.77
-12.21
-33.98
-54.00
-71.19
-85.49
-97.07
-105.49
-109.57
-107.82
-99.34
-84.53
-65.25
-44.31
-24.41
-7.31
6.57
17.64
26.33
32.32
34.49
31.74
24.17
13.79
4.18
-1.09
-0.30
5.48
13.02
18.92
21.70
22.61
24.66
30.42
40.09
50.93
58.65
59.57
52.63
39.91
25.63
14.25
8.61
9.02
13.57
19.20
23.19
24.11
22.11
18.37
14.21
10.27
6.25
1.42
-4.68
-11.60
-17.97
-22.22
-23.43
-21.85
-18.72
-15.44
-12.78
-10.55
-8.07
-4.88
-1.34
1.56
2.99
3.03
2.88
4.09
7.36
11.71
14.73
13.68
7.02
-4.69
-18.93
-32.39
-42.41
-47.94
-49.67
-49.30
-48.43
-47.73
-46.76
-44.42
-39.73
-32.51
-23.52
-13.96
-4.77
3.94
12.80
22.44
32.63
42.01
48.68
51.29
50.05
46.74
43.82
43.10
44.85
47.87
50.42
51.42
50.96
49.99
49.33
48.92
47.71
44.31
38.08
29.63
20.78
13.65
9.63
8.76
9.72
10.56
9.65
6.38
1.20
-4.83
-10.81
-16.50
-22.35
-29.20
-37.57
-47.30
-57.49
-66.69
-73.38
-76.22
-74.21
-66.91
-54.68
-38.89
-21.95
-6.83
3.77
8.34
7.11
1.94
-4.44
-9.59
-12.16
-12.25
-10.99
-9.84
-9.87
-11.38
-13.90
-16.49
-18.14
-18.11
-16.25
-12.99
-9.23
-5.95
-3.88
-3.18
-3.48
-3.93
-3.49
-1.27
3.32
10.45
19.77
30.38
40.85
49.28
53.73
52.69
45.55
32.98
16.92
0.34
-13.45
-21.54
-22.36
-16.31
-5.71
6.05
15.93
22.55
26.75
30.86
37.24
46.68
57.79
67.55
72.79
71.75
64.78
54.05
42.41
32.13
24.21
18.33
13.50
8.67
3.53
-1.47
-5.31
-7.11
-6.72
-5.09
-3.99
-5.32
-10.21
-18.59
-29.31
-40.83
-51.88
-61.75
-70.05
-76.15
-78.95
-77.08
-69.58
-56.56
-39.43
-20.43
-1.88
14.45
27.54
37.03
42.92
45.56
45.81
45.08
44.95
46.53
49.76
53.32
55.19
53.76
48.76
41.53
34.39
29.61
28.40
30.62
35.07
40.25
44.92
48.27
49.67
48.42
43.68
34.81
21.76
5.30
-13.19
-32.02
-49.57
-64.45
-75.57
-82.09
-83.50
-79.81
-71.65
-60.28
-47.37
-34.56
-23.19
-14.11
-7.73
-4.17
-3.33
-4.92
-8.29
-12.43
-16.16
-18.54
-19.24
-18.76
-18.29
-19.17
-22.23
-27.46
-33.98
-40.63
-46.50
-51.36
-55.47
-59.04
-61.73
-62.48
-60.00
-53.53
-43.49
-31.51
-19.84
-10.47
-4.38
-1.28
-0.00
0.85
2.25
4.46
7.12
9.51
10.84
10.30
7.11
0.88
-7.84
-16.75
-21.83
-18.19
-1.92
27.81
67.79
111.23
150.09
177.90
191.93
193.63
187.27
177.73
168.52
161.13
155.45
150.83
146.68
142.33
136.39
126.32
109.18
83.16
49.18
11.39
-23.96
-50.90
-65.90
-68.87
-62.41
-50.08
-34.78
-18.22
-1.55
13.70
25.18
30.27
27.41
16.98
1.35
-16.01
-31.94
-44.52
-53.33
-59.00
-62.50
-64.50
-65.19
-64.52
-62.64
-60.09
-57.80
-56.71
-57.35
-59.50
-62.24
-64.38
-65.02
-63.94
-61.55
-58.44
-54.95
-50.87
-45.83
-39.78
-33.47
-28.22
-25.04
-23.60
-21.69
-15.91
-3.35
16.33
39.85
61.02
73.03
71.43
56.22
31.99
6.15
-14.19
-24.93
-26.33
-22.33
-18.34
-18.67
-24.90
-35.66
-47.93
-58.50
-64.91
-65.52
-59.02
-44.54
-22.54
3.71
27.74
41.46
38.47
17.58
-15.85
-51.71
-79.35
-91.82
-88.14
-72.35
-50.70
-28.63
-9.39
5.59
15.42
18.88
14.72
2.53
-16.33
-38.74
-60.58
-78.03
-88.64
-91.80
-88.68
-81.69
-73.66
-67.03
-63.22
-62.24
-62.80
-62.77
-59.93
-52.80
-41.13
-25.78
-8.28
9.91
27.99
45.87
63.74
81.50
98.23
112.34
122.03
125.99
124.05
117.33
108.05
98.81
91.66
87.19
84.10
79.71
71.13
56.80
37.43
15.90
-3.80
-18.21
-25.62
-26.53
-23.15
-18.36
-14.72
-13.77
-15.82
-20.09
-25.01
-28.84
-30.17
-28.29
-23.37
-16.25
-8.25
-1.12
3.03
2.06
-5.54
-19.68
-38.08
-56.58
-70.35
-75.48
-70.26
-55.41
-33.59
-8.25
17.32
40.44
59.16
72.20
78.82
78.90
72.96
62.18
48.30
33.44
19.84
9.31
2.69
-0.43
-1.71
-3.33
-7.25
-14.39
-24.47
-36.24
-48.01
-58.35
-66.51
-72.55
-77.06
-80.79
-84.25
-87.42
-89.70
-89.96
-86.76
-78.93
-66.02
-48.75
-29.11
-9.79
6.85
19.67
29.21
37.34
46.15
56.82
68.90
80.54
89.33
93.34
91.72
84.74
73.41
59.04
43.21
27.70
14.51
5.44
1.59
2.95
8.40
16.22
24.85
33.46
42.00
50.93
60.81
71.69
82.82
92.57
98.36
97.13
86.41
65.65
37.07
5.35
-23.93
-46.20
-59.21
-63.01
-58.75
-47.50
-30.01
-7.45
17.71
41.33
58.61
65.80
61.92
49.39
33.10
18.33
8.79
5.60
7.31
10.79
12.68
10.63
4.55
-3.69
-11.61
-17.33
-20.15
-20.59
-19.95
-19.57
-20.54
-23.07
-26.93
-32.15
-39.00
-47.40
-56.78
-66.49
-75.82
-84.35
-90.70
-92.64
-88.08
-75.78
-55.70
-29.47
-0.53
28.46
51.38
62.37
60.62
49.59
32.86
13.28
-5.97
-22.02
-33.04
-39.01
-40.98
-40.62
-39.85
-39.84
-40.20
-39.31
-35.81
-29.38
-21.17
-12.78
-5.71
-1.62
-2.17
-8.83
-22.44
-42.54
-66.51
-89.67
-106.20
-111.37
-103.68
-85.13
-59.51
-30.19
1.04
33.73
67.29
99.74
127.55
146.76
154.86
152.07
141.21
126.06
109.74
93.81
78.68
64.56
52.08
42.15
35.38
31.38
28.60
24.83
18.19
8.02
-4.83
-18.42
-30.61
-39.83
-45.28
-46.58
-43.37
-35.29
-22.66
-7.27
7.61
18.14
21.77
18.70
12.03
6.35
5.34
9.93
17.90
25.22
28.11
24.73
15.63
3.05
-10.37
-22.70
-33.12
-41.79
-49.42
-56.65
-63.62
-69.72
-73.67
-74.06
-70.14
-62.26
-51.79
-40.36
-29.03
-18.12
-7.95
0.18
3.88
0.82
-9.39
-24.02
-37.94
-45.87
-45.04
-36.23
-22.82
-8.22
6.08
20.88
37.59
56.14
74.02
87.15
92.10
87.99
76.94
62.97
50.10
40.81
35.62
33.57
33.06
32.76
31.98
30.63
28.84
26.44
22.86
17.20
8.76
-2.46
-15.56
-28.97
-41.19
-51.26
-58.91
-63.97
-65.74
-62.75
-53.37
-37.19
-16.11
5.56
22.47
30.59
29.05
20.72
10.80
4.32
3.88
8.77
15.81
21.19
22.30
18.45
10.67
0.71
-9.90
-20.30
-30.31
-40.07
-49.64
-58.72
-66.45
-71.49
-72.30
-67.70
-57.37
-42.16
-23.86
-4.55
14.23
31.81
48.22
63.38
76.42
85.66
89.30
86.43
77.68
64.99
50.90
37.70
27.05
20.03
17.33
19.28
25.39
34.02
42.46
47.69
47.65
42.16
32.94
22.83
14.42
9.04
6.50
5.55
4.70
2.92
-0.01
-3.71
-7.54
-11.07
-14.24
-17.26
-20.30
-23.30
-25.98
-27.96
-29.11
-29.68
-30.21
-31.24
-32.92
-34.88
-36.40
-36.99
-36.84
-36.83
-37.88
-40.08
-42.21
-42.06
-37.63
-28.41
-16.02
-3.56
5.85
10.78
12.10
12.37
14.27
19.03
25.75
31.97
34.85
32.50
24.67
12.76
-0.77
-13.08
-21.73
-25.27
-23.55
-17.78
-10.17
-3.29
0.85
1.49
-0.67
-3.97
-6.67
-7.80
-7.48
-6.56
-5.80
-5.10
-3.43
0.55
7.37
15.88
23.29
26.07
21.46
8.89
-9.66
-30.32
-48.82
-61.88
-67.90
-66.60
-58.38
-43.79
-23.64
0.53
26.12
49.75
68.19
79.32
82.83
80.01
73.05
64.22
55.34
47.59
41.55
37.18
33.84
30.43
25.87
19.59
11.82
3.45
-4.50
-11.38
-17.17
-22.37
-27.50
-32.82
-38.09
-42.75
-46.19
-48.00
-47.90
-45.55
-40.51
-32.38
-21.29
-8.43
4.00
13.32
17.60
16.70
12.63
8.82
8.61
13.65
23.05
33.72
41.49
42.74
35.65
20.90
1.36
-18.87
-35.89
-47.28
-52.75
-53.94
-53.30
-52.79
-53.09
-53.65
-53.62
-52.50
-50.27
-46.73
-41.06
-32.14
-19.91
-6.42
4.34
8.34
3.99
-6.53
-18.17
-25.66
-26.16
-20.19
-10.44
0.66
12.44
25.83
41.66
59.09
75.40
87.26
92.54
91.33
85.56
77.74
69.72
62.28
55.44
48.97
42.71
36.58
30.51
24.34
18.04
11.72
5.59
-0.23
-5.90
-11.70
-17.81
-23.90
-29.13
-32.49
-33.41
-32.17
-29.82
-27.57
-26.07
-24.97
-23.21
-19.77
-14.47
-8.17
-2.27
2.17
5.10
7.43
10.23
13.85
17.48
19.49
18.26
13.04
4.33
-6.41
-17.44
-27.33
-35.26
-40.99
-44.70
-46.83
-47.93
-48.45
-48.51
-47.76
-45.47
-40.96
-34.19
-25.98
-17.69
-10.46
-4.49
1.11
7.48
14.86
21.76
25.42
23.24
14.46
0.77
-14.41
-27.47
-35.99
-39.10
-36.90
-29.62
-17.44
-1.04
17.69
35.64
49.44
56.98
58.36
55.75
52.14
49.88
49.89
51.91
55.34
59.95
65.94
73.50
82.22
90.87
97.69
101.08
100.23
95.28
87.00
76.16
63.10
47.61
29.43
8.85
-12.94
-34.03
-52.44
-66.87
-76.95
-82.93
-84.99
-82.93
-76.48
-66.21
-54.09
-43.19
-36.36
-34.56
-36.10
-37.45
-35.25
-28.40
-18.86
-10.56
-7.14
-9.90
-17.12
-25.16
-30.56
-31.77
-29.64
-26.48
-24.49
-24.54
-25.87
-26.90
-26.34
-24.11
-21.20
-18.99
-18.17
-18.44
-18.81
-18.45
-17.34
-16.25
-15.96
-16.33
-16.28
-14.75
-12.03
-10.21
-12.04
-18.64
-27.76
-34.03
-31.36
-16.47
8.87
38.17
63.10
77.45
79.65
72.82
62.55
53.84
48.99
47.30
46.41
43.94
38.70
30.92
21.80
12.83
5.16
-0.58
-4.33
-6.56
-8.35
-11.09
-16.20
-24.51
-35.80
-48.72
-61.16
-70.91
-76.14
-75.69
-69.12
-56.74
-39.85
-20.89
-3.08
10.65
19.07
23.38
26.65
31.87
39.81
48.05
52.02
47.52
33.24
11.80
-11.50
-31.13
-43.80
-49.30
-49.73
-47.83
-45.46
-43.10
-40.33
-36.70
-32.13
-26.96
-21.43
-15.43
-8.67
-1.22
5.94
11.17
12.97
11.05
6.72
2.56
1.27
4.58
12.72
24.69
39.01
54.36
69.70
83.90
95.43
102.52
103.77
98.87
88.89
75.91
62.20
49.53
38.81
30.39
24.26
20.18
17.70
16.03
14.07
10.70
5.18
-2.52
-11.76
-21.59
-31.47
-41.58
-52.89
-66.50
-82.62
-99.77
-114.72
-123.30
-121.96
-109.29
-86.66
-57.82
-27.36
0.95
25.22
45.22
61.32
73.29
79.89
79.44
71.07
55.70
36.13
16.06
-1.41
-14.97
-25.26
-34.18
-43.56
-54.06
-64.91
-74.53
-81.43
-85.04
-85.63
-83.66
-79.23
-72.12
-62.68
-52.57
-44.49
-40.81
-41.67
-44.33
-44.17
-37.18
-22.18
-1.50
20.65
40.67
57.45
72.22
86.70
101.04
113.16
119.91
119.20
111.55
99.91
88.20
79.36
74.25
71.85
70.15
67.26
62.13
54.61
45.12
34.25
22.46
10.03
-3.08
-17.11
-32.34
-48.63
-64.80
-78.33
-85.73
-83.64
-70.41
-47.14
-17.74
12.53
38.90
58.60
71.02
76.70
76.06
68.76
54.28
33.07
7.55
-18.13
-39.51
-53.59
-59.98
-60.76
-59.19
-58.07
-58.69
-60.59
-62.29
-62.20
-59.31
-53.34
-44.72
-34.38
-23.79
-14.94
-9.90
-9.98
-14.78
-21.80
-27.31
-27.91
-22.17
-11.04
3.06
17.98
33.08
49.07
66.51
84.26
99.05
106.77
104.80
93.68
77.15
60.47
47.85
40.80
37.90
36.06
32.38
25.40
15.38
3.72
-8.12
-19.34
-29.98
-40.53
-51.37
-62.28
-72.48
-81.08
-87.49
-91.61
-93.47
-92.63
-87.96
-78.27
-63.25
-44.39
-25.05
-9.28
-0.22
1.35
-2.84
-9.62
-16.12
-20.97
-24.38
-27.22
-29.79
-31.28
-30.20
-25.38
-16.84
-5.93
5.35
15.40
23.61
30.34
36.35
42.12
47.57
52.25
55.75
57.94
58.83
58.36
56.57
53.91
51.61
51.28
54.02
59.34
64.89
67.53
65.10
57.94
48.93
41.90
39.32
40.77
43.14
42.54
36.65
26.08
13.88
3.77
-1.93
-3.27
-2.28
-1.68
-3.39
-7.80
-13.78
-19.65
-23.97
-26.27
-27.03
-27.30
-28.11
-30.19
-33.88
-39.12
-45.52
-52.05
-56.97
-58.01
-53.14
-41.58
-24.52
-4.94
13.44
27.59
36.13
39.34
38.31
33.96
26.55
16.07
2.99
-11.22
-24.35
-34.30
-40.05
-42.10
-42.13
-42.14
-43.41
-46.01
-48.77
-49.91
-47.83
-41.74
-32.02
-19.92
-7.14
4.69
14.27
20.62
23.04
21.42
16.60
10.54
5.63
3.54
4.23
5.99
6.65
5.30
3.31
3.83
9.70
21.41
36.01
48.30
53.42
49.39
38.11
24.40
13.50
8.69
10.12
15.22
20.21
21.79
18.39
10.44
-0.14
-10.95
-20.11
-26.85
-31.59
-35.66
-40.77
-48.28
-58.52
-70.24
-80.54
-85.58
-82.03
-68.64
-47.13
-21.90
1.65
19.09
28.49
30.54
27.51
21.68
14.27
5.42
-4.89
-15.92
-25.83
-32.24
-33.45
-29.32
-21.49
-12.60
-5.08
-0.06
2.96
5.60
9.50
15.40
22.81
30.39
36.66
40.63
41.96
40.90
38.14
34.84
32.54
32.71
35.96
41.34
46.36
48.13
44.99
37.78
29.63
24.34
24.17
28.46
34.03
37.02
35.17
29.09
21.73
16.64
15.85
18.91
23.22
25.55
23.54
16.57
5.59
-7.55
-21.15
-34.09
-45.95
-56.62
-66.06
-74.17
-80.70
-85.27
-87.12
-85.11
-78.07
-65.52
-48.40
-29.23
-11.47
1.85
9.24
11.25
9.89
7.43
5.35
3.86
2.31
0.05
-2.82
-5.32
-5.96
-3.54
2.26
10.50
19.24
26.23
29.85
29.77
26.89
22.81
19.05
16.40
14.89
14.01
13.32
12.66
12.09
11.43
10.18
7.67
3.37
-2.83
-10.84
-20.03
-28.97
-35.26
-36.25
-29.99
-16.39
2.15
21.43
36.90
45.82
48.50
47.75
46.42
45.74
44.70
40.93
32.68
19.80
4.09
-11.89
-24.80
-32.84
-36.65
-38.60
-42.58
-49.45
-58.22
-66.95
-73.54
-74.40
-67.75
-53.45
-32.94
-9.13
14.42
33.83
46.08
49.77
45.52
35.13
21.39
7.29
-4.94
-14.39
-21.95
-29.55
-38.86
-50.08
-61.89
-71.78
-77.27
-77.25
-72.31
-64.40
-55.54
-46.85
-38.27
-29.31
-19.57
-9.09
1.88
13.31
25.34
37.94
50.47
61.63
69.96
74.78
76.71
77.30
78.01
79.08
79.41
77.35
72.05
64.42
57.07
53.05
54.24
60.27
68.63
76.05
80.14
80.50
78.67
76.90
76.77
78.21
79.61
78.77
74.21
66.00
55.70
45.50
36.89
29.86
22.89
13.88
1.38
-14.48
-31.90
-48.20
-60.99
-69.16
-73.12
-74.32
-74.29
-73.82
-72.75
-70.45
-66.61
-61.80
-57.34
-54.64
-54.42
-56.28
-59.10
-61.78
-63.95
-66.13
-69.20
-73.61
-78.91
-83.89
-87.26
-88.38
-87.57
-85.73
-83.58
-81.07
-77.20
-70.57
-60.07
-45.56
-28.02
-9.20
8.97
24.90
37.62
46.66
51.82
53.12
51.09
47.15
43.68
43.40
48.18
57.91
70.24
81.48
88.32
89.40
85.95
81.00
77.72
77.79
80.61
83.73
84.09
79.42
69.10
54.17
36.81
19.43
3.96
-8.53
-17.71
-23.69
-26.76
-27.30
-26.06
-24.32
-23.87
-26.46
-32.94
-42.60
-53.16
-61.49
-64.84
-61.98
-53.66
-42.39
-31.30
-22.99
-18.64
-17.84
-19.08
-20.57
-20.90
-19.48
-16.47
-12.56
-8.69
-5.83
-4.98
-6.99
-12.28
-20.23
-29.04
-36.25
-39.62
-38.29
-33.08
-26.42
-21.25
-19.57
-21.36
-24.65
-26.70
-25.60
-21.07
-14.09
-6.30
0.87
6.78
11.59
15.63
18.64
19.79
18.53
16.03
14.79
17.55
25.78
38.72
53.46
65.83
72.25
69.14
56.59
39.03
22.65
11.31
5.27
3.05
3.37
5.85
10.41
17.13
25.01
31.99
35.94
35.83
32.21
26.77
21.36
16.83
13.81
11.96
10.03
6.42
0.01
-9.35
-20.82
-32.88
-43.51
-50.43
-51.97
-47.60
-38.16
-25.43
-11.68
0.88
10.44
15.88
16.84
13.52
6.48
-3.26
-14.05
-23.74
-30.15
-31.91
-29.08
-23.26
-17.19
-13.54
-13.74
-17.25
-21.83
-24.69
-23.95
-19.69
-13.91
-9.50
-8.72
-12.00
-17.79
-23.35
-26.14
-24.93
-20.08
-13.03
-5.34
1.90
8.05
12.52
14.50
13.37
9.60
5.31
3.96
8.80
21.02
38.78
57.75
73.13
81.85
83.91
81.92
79.50
79.35
82.01
85.98
88.61
87.37
80.67
68.23
50.95
30.64
9.52
-10.23
-26.93
-39.62
-48.06
-52.46
-53.34
-51.43
-47.79
-43.83
-41.25
-41.53
-45.31
-51.82
-58.86
-63.56
-63.55
-58.02
-48.07
-36.13
-24.78
-15.69
-9.37
-5.61
-4.20
-5.22
-8.58
-13.37
-17.57
-18.67
-15.04
-7.17
2.06
8.54
8.83
1.82
-10.82
-25.59
-39.03
-49.17
-56.01
-60.71
-64.31
-66.69
-66.57
-62.31
-53.18
-40.09
-25.35
-11.69
-1.09
5.92
10.12
12.87
15.51
19.03
24.16
31.38
40.52
50.24
58.02
60.98
57.27
47.43
34.54
23.17
17.32
18.84
26.85
38.52
50.63
60.71
67.48
70.43
69.33
64.07
54.90
42.88
29.74
17.50
7.65
0.68
-3.97
-7.47
-11.04
-15.50
-21.06
-27.47
-34.14
-40.31
-45.18
-48.02
-48.33
-46.11
-41.85
-36.29
-29.91
-22.69
-14.27
-4.48
6.01
15.59
21.93
23.03
18.29
9.12
-1.52
-10.28
-14.88
-15.00
-12.08
-8.78
-7.80
-10.46
-16.04
-22.05
-25.35
-23.59
-16.28
-4.79
7.81
17.91
23.06
22.92
19.00
13.66
8.99
6.42
7.16
11.73
19.60
29.37
38.94
46.09
49.34
48.73
42.73
32.41
20.57
9.68
0.95
-5.07
-7.62
-5.94
-0.47
6.67
12.87
16.81
17.30
14.57
9.79
4.12
-1.84
-7.83
-13.57
-18.15
-20.86
-21.85
-21.70
-20.89
-19.75
-18.22
-15.93
-12.58
-8.10
-3.17
0.76
2.30
0.75
-3.65
-9.71
-15.62
-19.34
-18.96
-13.41
-3.16
9.81
22.18
30.37
31.99
27.08
18.32
10.13
6.51
9.08
16.27
24.14
28.43
26.72
19.55
9.86
1.20
-4.16
-6.22
-6.71
-7.75
-10.37
-13.99
-16.92
-17.63
-15.66
-11.74
-7.18
-2.82
1.38
5.83
10.37
13.83
14.54
11.62
6.11
0.97
-0.25
4.50
14.43
26.06
35.04
38.38
35.95
30.21
24.63
21.78
22.19
24.55
26.82
27.39
25.73
22.22
17.62
12.43
6.68
-0.05
-8.13
-17.41
-27.00
-35.44
-41.23
-43.51
-42.60
-40.00
-37.76
-37.51
-39.58
-42.83
-45.26
-45.11
-41.77
-35.97
-29.18
-22.71
-17.12
-12.36
-8.42
-5.87
-5.71
-8.67
-14.23
-20.33
-24.06
-23.14
-17.27
-8.56
-0.59
3.22
1.32
-5.38
-14.09
-21.70
-26.22
-27.60
-27.30
-27.17
-28.31
-30.48
-32.50
-33.01
-31.29
-27.42
-21.89
-15.10
-7.27
1.08
8.55
12.96
12.34
6.37
-2.69
-10.57
-12.80
-7.03
5.81
21.99
36.91
47.35
52.61
54.16
54.19
54.14
54.12
53.30
50.90
46.84
41.84
36.92
32.85
29.76
27.11
24.01
19.70
13.86
6.80
-0.68
-7.62
-13.32
-17.68
-21.19
-24.65
-28.77
-33.68
-38.91
-43.49
-46.32
-46.52
-43.57
-37.31
-27.93
-16.07
-3.10
8.81
17.06
19.48
15.37
6.17
-4.96
-14.40
-19.70
-20.66
-19.12
-17.73
-18.36
-21.08
-24.44
-26.55
-26.34
-24.26
-21.86
-20.82
-21.87
-24.26
-26.11
-25.29
-20.56
-12.05
-1.18
10.05
19.97
27.69
32.93
35.58
35.60
33.29
29.96
28.11
30.72
39.59
53.87
69.67
81.48
84.68
77.85
63.40
46.24
31.35
21.58
17.00
15.69
15.36
14.68
13.48
12.17
10.80
8.58
4.13
-3.67
-14.85
-27.95
-40.54
-50.18
-55.57
-57.05
-56.40
-55.79
-56.57
-58.59
-60.30
-59.69
-55.31
-46.91
-35.27
-21.58
-6.87
8.15
22.71
35.54
44.86
49.03
47.44
41.18
32.75
24.98
19.65
16.72
14.53
10.92
4.48
-4.65
-14.96
-24.37
-31.26
-35.16
-36.72
-37.05
-37.04
-36.77
-35.59
-32.72
-27.90
-21.80
-15.72
-10.94
-7.98
-6.36
-5.16
-3.85
-2.60
-2.08
-2.50
-2.87
-1.07
5.25
17.25
33.86
51.84
67.01
75.86
76.96
71.30
61.61
51.12
42.36
36.49
33.23
31.37
29.47
26.44
21.86
15.94
9.24
2.27
-4.64
-11.38
-17.95
-24.29
-30.16
-35.14
-38.80
-40.89
-41.51
-41.00
-39.72
-37.85
-35.08
-30.75
-24.06
-14.52
-2.41
11.03
23.74
33.39
38.18
37.52
32.25
24.35
16.14
9.50
5.21
2.89
1.27
-1.12
-5.27
-11.34
-18.58
-25.71
-31.43
-35.01
-36.51
-36.66
-36.29
-35.73
-34.53
-31.67
-26.33
-18.52
-9.50
-1.30
4.10
5.58
3.30
-1.54
-7.28
-12.39
-15.75
-16.65
-14.64
-9.71
-2.48
5.74
13.23
18.58
21.28
21.93
21.76
21.93
22.85
24.09
24.80
24.30
22.53
19.88
16.90
13.88
10.80
7.47
3.85
0.18
-3.11
-5.60
-7.16
-8.04
-8.77
-9.95
-11.94
-14.77
-18.14
-21.58
-24.77
-27.60
-30.19
-32.76
-35.41
-37.98
-40.02
-40.73
-39.13
-34.23
-25.49
-13.30
0.63
13.40
21.76
23.35
17.85
7.25
-4.90
-15.10
-21.36
-23.80
-24.19
-24.62
-26.37
-29.38
-32.44
-33.91
-32.38
-27.09
-18.03
-5.87
8.20
22.71
36.21
47.54
56.07
61.57
64.07
63.72
60.83
56.06
50.59
45.92
43.56
44.48
48.73
55.33
62.41
67.62
68.89
65.16
56.90
46.05
35.26
26.87
21.95
20.01
19.51
18.73
16.69
13.36
9.43
5.73
2.77
0.64
-0.83
-1.83
-2.53
-3.10
-3.88
-5.27
-7.67
-11.22
-15.75
-20.79
-25.83
-30.44
-34.38
-37.62
-40.20
-42.17
-43.65
-44.76
-45.49
-45.49
-44.01
-40.08
-33.08
-23.31
-12.20
-2.01
5.08
7.82
6.32
1.87
-3.78
-9.13
-13.28
-15.93
-17.05
-16.78
-15.33
-12.99
-10.07
-6.76
-3.05
1.07
5.31
8.91
10.87
10.40
7.49
3.03
-1.58
-5.07
-6.89
-7.33
-7.10
-6.80
-6.53
-5.97
-4.63
-2.26
1.14
5.51
10.93
17.57
25.39
33.59
40.56
44.33
43.54
38.23
30.06
21.69
15.64
13.26
14.35
17.52
21.07
23.64
24.58
23.83
21.64
18.31
14.21
9.76
5.45
1.71
-1.21
-3.33
-4.89
-6.30
-8.05
-10.68
-14.60
-19.92
-26.28
-32.83
-38.45
-42.13
-43.25
-41.77
-38.11
-32.92
-26.74
-19.97
-12.89
-5.82
0.75
6.18
9.86
11.44
10.99
8.91
5.64
1.49
-3.46
-9.14
-15.17
-20.77
-24.80
-26.29
-24.91
-21.30
-16.91
-13.44
-12.00
-12.59
-14.09
-14.86
-13.59
-9.95
-4.71
0.80
5.46
8.82
11.25
13.41
15.92
19.11
23.19
28.36
34.68
41.54
47.35
49.82
47.07
38.79
26.88
14.96
6.78
4.62
8.36
15.78
23.79
29.78
32.56
32.31
30.09
27.16
24.55
22.82
22.09
22.15
22.57
22.81
22.41
20.98
18.32
14.42
9.47
3.90
-1.63
-6.39
-9.72
-11.37
-11.59
-11.10
-10.76
-11.13
-12.22
-13.53
-14.37
-14.40
-13.94
-13.90
-15.37
-18.93
-24.12
-29.53
-33.36
-34.32
-32.36
-28.71
-25.32
-24.02
-25.64
-29.85
-35.40
-40.84
-45.11
-47.87
-49.31
-49.78
-49.34
-47.72
-44.48
-39.30
-32.35
-24.28
-16.12
-8.85
-3.08
1.11
4.08
6.17
7.39
7.39
5.82
2.77
-0.88
-3.72
-4.42
-2.30
2.33
8.42
14.78
20.55
25.52
29.94
34.24
38.65
42.98
46.58
48.41
47.38
42.84
35.05
25.34
15.76
8.23
3.76
2.01
1.59
0.87
-1.24
-4.87
-9.47
-14.35
-19.22
-24.18
-29.51
-35.17
-40.66
-45.19
-48.14
-49.36
-49.10
-47.66
-44.88
-40.05
-32.43
-21.99
-10.02
1.00
8.29
9.94
5.85
-2.26
-11.60
-19.68
-25.32
-28.71
-30.76
-32.16
-32.85
-32.05
-28.86
-22.76
-14.23
-4.72
3.86
9.86
12.44
11.76
8.80
5.04
2.22
1.47
2.95
6.11
10.16
14.33
17.70
19.01
16.61
9.81
-1.69
-17.48
-35.97
-54.25
-68.52
-75.24
-72.21
-59.04
-35.70
-3.92
33.14
72.07
110.13
145.95
178.86
208.10
232.45
252.28
267.32
276.43
278.39
272.11
257.42
234.75
204.84
158.11
94.19
22.52
-42.67
-91.32
-122.48
-140.76
-151.92
-159.84
-165.47
-165.59
-157.16
-141.69
-121.03
-99.41
-81.25
-69.76
-66.23
-70.02
-77.76
-86.36
-94.14
-97.74
-95.37
-85.94
-69.48
-47.58
-23.31
0.16
19.49
32.17
37.64
37.10
33.60
30.37
29.15
29.30
28.72
24.73
15.63
1.51
-15.99
-33.79
-48.49
-57.17
-58.04
-50.52
-36.27
-17.02
3.85
22.23
34.79
40.03
38.49
32.37
24.45
17.18
12.21
9.92
9.89
11.57
14.70
19.57
26.91
37.39
50.83
65.68
78.75
86.51
86.64
78.91
65.15
48.14
30.29
12.93
-2.08
-13.09
-18.05
-14.79
-2.26
17.93
40.73
58.75
64.98
55.59
31.33
-2.95
-40.50
-75.55
-105.07
-128.92
-148.51
-165.17
-179.19
-190.06
-197.12
-200.25
-200.06
-197.25
-191.90
-183.03
-168.94
-148.13
-120.43
-87.40
-51.91
-17.17
14.30
41.42
64.61
85.38
105.61
126.84
149.62
173.13
195.10
212.16
220.88
218.98
206.25
184.75
157.94
129.41
101.77
76.32
53.46
33.48
16.98
4.66
-3.37
-8.15
-11.94
-17.46
-26.70
-39.83
-54.74
-67.57
-73.85
-69.96
-54.32
-27.91
5.94
42.28
75.51
100.58
114.01
114.63
103.77
84.70
61.45
37.59
15.42
-3.95
-19.91
-31.61
-37.92
-38.09
-32.77
-24.49
-17.12
-14.39
-18.26
-28.17
-41.55
-55.37
-67.72
-78.56
-89.29
-101.63
-116.46
-133.34
-150.87
-167.41
-181.77
-193.21
-200.97
-203.85
-200.13
-188.32
-167.94
-140.06
-106.88
-70.88
-33.88
3.19
39.75
74.78
106.36
132.15
150.37
160.73
164.65
164.44
162.14
158.62
153.47
145.62
134.19
118.99
100.56
79.90
58.13
36.40
15.88
-2.18
-16.59
-26.42
-31.30
-31.65
-28.73
-24.43
-20.74
-18.96
-19.04
-19.36
-17.37
-10.76
1.46
18.47
38.24
58.48
77.49
94.28
108.11
117.82
121.89
119.06
109.20
93.68
74.82
54.86
35.20
16.22
-2.07
-19.38
-34.88
-47.57
-57.00
-63.62
-68.69
-73.67
-79.74
-87.42
-96.62
-106.81
-117.21
-126.90
-135.04
-141.11
-145.11
-147.55
-149.24
-150.78
-152.13
-152.47
-150.33
-144.05
-132.21
-113.94
-89.07
-58.19
-22.71
15.09
52.16
85.10
110.83
127.25
133.83
131.73
123.50
112.48
101.97
94.56
91.56
92.64
95.89
98.21
96.11
86.82
69.27
44.57
15.82
-12.76
-37.12
-54.47
-63.93
-66.36
-63.74
-58.35
-52.17
-46.64
-42.57
-40.09
-38.42
-35.88
-30.33
-20.12
-5.12
12.80
30.48
44.97
55.06
61.74
67.21
73.06
78.84
82.09
79.92
71.10
57.22
42.19
30.37
24.42
24.31
27.80
31.90
34.36
34.28
31.73
26.95
19.81
9.96
-2.57
-16.83
-30.91
-42.56
-50.08
-53.00
-52.20
-49.45
-46.51
-44.62
-44.22
-45.19
-47.22
-50.01
-53.20
-56.27
-58.49
-59.09
-57.43
-53.05
-45.51
-34.41
-19.69
-2.23
15.70
30.53
38.41
36.75
25.66
8.22
-10.36
-24.52
-30.27
-26.27
-13.86
3.66
22.25
38.08
48.27
51.17
46.57
35.54
20.27
3.63
-11.38
-22.27
-27.54
-27.01
-21.81
-14.09
-6.44
-1.24
0.07
-2.46
-7.17
-11.17
-11.32
-5.52
6.26
21.88
37.79
50.62
58.50
61.48
60.87
57.87
52.63
44.20
31.63
15.26
-2.47
-17.69
-26.51
-26.63
-18.21
-3.53
14.06
31.33
45.81
55.88
60.44
58.75
50.52
36.19
17.07
-4.85
-27.39
-48.72
-67.62
-83.40
-95.63
-103.89
-107.72
-106.76
-101.03
-91.11
-78.16
-63.68
-49.13
-35.56
-23.32
-12.02
-0.69
11.85
26.56
43.69
62.48
81.09
96.98
107.47
110.52
105.36
92.86
75.23
55.38
35.93
18.47
3.10
-11.23
-26.10
-42.64
-60.88
-79.38
-95.58
-106.59
-110.19
-105.63
-93.78
-76.78
-57.14
-36.92
-17.28
1.38
18.88
34.74
48.04
57.90
63.98
67.01
68.54
70.19
72.71
75.58
77.51
77.50
75.77
73.74
73.10
74.32
75.88
74.80
68.24
55.50
38.77
22.40
10.91
6.94
10.26
18.27
27.54
35.27
39.98
41.31
39.36
34.08
25.22
12.69
-3.01
-20.54
-38.03
-53.76
-66.78
-77.26
-86.32
-95.41
-105.52
-116.59
-127.33
-135.58
-138.98
-135.67
-124.92
-107.17
-83.95
-57.36
-29.66
-2.85
21.55
42.71
60.45
75.01
86.84
96.32
103.57
108.51
111.06
111.32
109.66
106.72
103.02
98.40
91.51
79.92
61.05
33.64
-0.94
-38.43
-72.91
-98.93
-113.54
-117.18
-112.93
-104.63
-95.08
-85.27
-74.81
-63.11
-50.19
-36.77
-23.73
-11.60
-0.40
10.01
19.67
28.49
36.46
43.64
49.94
54.73
56.62
53.99
45.85
32.87
17.60
3.74
-5.29
-7.74
-4.09
3.43
12.06
19.64
25.17
28.64
30.30
30.26
28.32
24.34
18.54
11.69
4.91
-0.83
-5.09
-8.22
-11.22
-15.37
-21.75
-30.78
-41.97
-53.88
-64.40
-71.25
-72.61
-67.63
-56.67
-41.18
-23.31
-5.38
10.70
23.85
34.00
41.98
48.85
55.26
60.92
64.78
65.82
63.99
60.72
58.44
59.45
64.40
71.68
77.70
78.40
70.94
54.87
32.12
6.17
-19.23
-41.05
-57.46
-67.80
-72.37
-72.26
-69.13
-64.85
-61.04
-58.46
-56.52
-53.15
-45.22
-29.36
-3.22
33.34
77.39
122.98
161.92
185.66
187.57
165.14
121.04
62.63
-0.10
-57.60
-103.42
-135.53
-155.70
-167.43
-173.59
-175.00
-170.51
-158.44
-138.42
-112.36
-84.19
-58.51
-38.86
-26.65
-21.04
-19.81
-20.55
-21.65
-22.69
-24.04
-26.21
-29.25
-32.56
-35.27
-36.63
-36.24
-33.71
-28.07
-17.59
-0.54
23.25
50.86
76.05
91.07
89.81
71.10
40.00
6.28
-19.48
-30.20
-24.96
-8.74
10.44
25.23
31.75
30.25
23.69
15.55
8.12
2.13
-2.32
-4.69
-3.47
3.14
15.97
33.75
53.12
69.72
80.00
82.64
79.11
72.84
67.82
67.11
71.77
80.75
91.46
100.85
106.63
108.13
106.29
102.88
99.25
95.32
89.45
79.39
63.71
43.03
20.27
-0.40
-15.07
-21.54
-19.88
-11.93
-0.24
12.95
26.21
38.65
49.44
57.37
60.86
58.50
49.72
35.20
16.68
-3.68
-24.19
-44.26
-64.37
-85.65
-108.92
-133.98
-159.39
-182.84
-201.99
-215.04
-220.87
-218.55
-206.92
-184.57
-150.89
-107.50
-59.23
-13.26
23.35
46.82
58.54
64.20
70.97
83.71
102.50
122.88
138.38
143.88
137.69
121.42
97.73
69.10
37.25
3.82
-28.75
-56.88
-76.49
-84.62
-81.03
-69.39
-54.98
-41.91
-31.35
-21.63
-9.78
6.82
29.21
56.57
85.07
110.35
128.53
136.16
130.05
108.09
71.13
24.11
-24.93
-69.56
-105.50
-131.62
-149.70
-163.26
-175.77
-188.66
-201.08
-200.39
-179.64
-141.96
-98.35
-58.68
-27.27
-5.07
8.12
12.71
9.68
-2.28
-23.28
-50.52
-78.44
-100.06
-109.77
-104.14
-82.31
-43.31
7.24
61.78
113.29
156.34
187.41
203.51
203.22
187.94
162.11
131.14
101.36
78.14
59.82
45.44
33.01
20.79
8.80
-1.44
-8.82
-12.62
-12.91
-10.57
-6.73
-3.08
-2.17
-5.45
-12.58
-21.77
-30.17
-35.27
-35.94
-32.01
-24.44
-14.18
-1.57
12.75
27.23
39.81
48.97
54.87
59.75
66.05
74.34
82.33
85.61
80.36
66.21
47.19
29.89
19.90
18.43
21.68
23.32
18.23
5.26
-12.49
-30.02
-43.47
-52.26
-59.01
-67.70
-81.07
-98.94
-118.26
-134.67
-144.78
-147.81
-145.82
-142.48
-141.18
-143.54
-148.93
-155.09
-159.03
-157.73
-148.32
-128.42
-97.14
-56.45
-11.94
28.29
56.86
70.89
74.17
75.76
85.55
108.80
143.01
178.94
205.18
213.61
202.76
177.31
144.55
110.40
77.20
44.29
10.49
-23.56
-54.78
-78.70
-91.79
-93.08
-84.53
-69.79
-52.50
-35.11
-18.82
-4.42
7.01
14.33
17.45
18.22
20.10
26.27
37.36
50.35
59.92
61.57
54.78
43.83
35.56
35.09
42.31
51.43
54.07
44.13
21.44
-7.89
-34.65
-51.16
-54.78
-48.51
-38.62
-31.12
-28.94
-31.26
-35.10
-37.65
-38.06
-37.66
-38.79
-43.05
-50.28
-58.51
-65.09
-67.86
-65.81
-58.97
-47.77
-32.62
-14.07
6.65
27.26
44.89
57.32
64.16
67.31
69.89
74.27
80.21
84.58
82.98
72.36
53.22
29.86
8.40
-6.16
-12.12
-11.38
-7.69
-4.18
-1.75
0.84
5.43
12.70
21.41
29.17
34.06
36.09
37.27
40.50
47.80
59.41
73.87
88.99
102.94
114.46
122.36
124.77
119.17
103.59
78.35
47.00
15.50
-10.21
-27.03
-36.08
-41.96
-50.11
-63.95
-83.20
-104.42
-123.15
-136.27
-143.34
-146.27
-147.76
-149.59
-151.78
-152.79
-150.77
-144.90
-135.92
-125.72
-115.93
-106.76
-96.62
-83.10
-63.92
-38.20
-7.08
26.72
59.99
89.95
114.47
131.70
139.63
137.54
126.90
111.39
95.97
85.36
82.35
86.81
95.78
104.24
108.36
106.56
98.63
84.33
63.04
34.13
-1.96
-42.96
-85.32
-123.10
-149.63
-160.57
-155.88
-139.15
-116.02
-92.38
-68.26
-49.02
-42.81
-53.63
-77.14
-102.88
-118.75
-119.97
-106.45
-82.55
-56.90
-36.74
-24.31
-16.66
-8.41
7.00
34.58
75.04
123.11
166.99
195.99
208.10
209.47
207.17
203.86
203.06
196.09
176.79
144.42
104.43
65.56
35.11
13.37
-0.59
-10.12
-19.82
-31.51
-44.54
-55.88
-61.99
-61.27
-55.15
-46.64
-39.28
-35.93
-36.24
-37.94
-37.91
-33.66
-24.63
-12.30
1.18
13.70
23.69
31.36
37.52
42.93
47.67
51.08
52.06
49.96
44.50
35.79
24.62
11.95
-1.21
-13.94
-25.49
-35.48
-44.00
-51.87
-60.46
-70.95
-83.79
-98.19
-112.10
-122.76
-127.58
-125.04
-115.36
-100.30
-82.50
-64.45
-47.80
-33.08
-20.04
-8.25
2.37
11.40
18.22
22.58
24.93
26.37
28.15
31.04
34.95
38.96
41.81
42.49
40.79
37.37
33.46
30.40
29.13
29.98
32.65
36.45
40.63
44.55
47.72
49.72
50.13
48.53
44.67
38.70
31.30
23.54
16.47
10.70
6.08
1.88
-2.74
-8.22
-14.25
-19.92
-24.10
-25.98
-25.35
-22.64
-18.71
-14.84
-12.12
-11.12
-11.80
-13.70
-16.15
-18.35
-19.66
-19.75
-18.95
-17.58
-15.37
-11.26
-3.84
7.98
24.30
43.89
64.52
83.03
97.19
106.80
113.33
118.64
123.99
129.77
135.81
141.85
145.79
146.17
143.15
138.14
132.25
125.81
118.88
111.48
103.26
89.13
64.51
28.69
-14.83
-61.21
-106.11
-145.92
-178.14
-201.88
-224.29
-251.47
-282.97
-311.95
-330.87
-335.66
-326.54
-307.75
-286.65
-279.63
-298.61
-343.57
-404.02
-467.88
-526.97
-576.64
-613.33
-582.86
-457.75
-262.10
-56.05
111.84
224.26
286.77
315.69
329.18
340.00
343.94
331.96
300.90
257.27
212.40
176.79
155.53
148.63
151.49
151.35
139.08
115.69
90.61
73.83
70.07
78.10
93.28
110.12
120.77
121.17
114.25
105.85
100.59
99.76
102.57
107.96
115.06
120.70
121.28
114.30
99.12
77.38
53.05
31.98
20.04
20.38
31.04
46.16
58.64
62.71
55.51
37.34
10.88
-19.98
-51.49
-80.89
-106.64
-128.29
-146.30
-161.57
-175.05
-187.53
-199.45
-210.91
-221.82
-231.72
-239.61
-243.81
-242.04
-231.98
-212.04
-181.76
-141.68
-92.80
-36.18
26.48
91.60
152.67
200.69
226.77
226.13
201.28
162.23
122.96
95.66
85.71
90.02
99.66
104.93
100.11
85.19
64.29
42.34
22.29
4.52
-11.65
-26.01
-36.53
-40.31
-35.52
-23.00
-6.23
10.15
22.59
30.20
34.68
38.79
44.56
52.22
60.64
68.38
74.61
79.07
81.27
79.93
73.41
61.10
44.79
28.77
18.39
17.47
26.22
41.03
56.11
66.21
68.72
64.14
54.90
43.58
31.64
19.19
5.66
-9.29
-25.30
-41.50
-57.11
-71.99
-86.81
-102.48
-119.47
-137.06
-153.30
-165.44
-170.96
-168.44
-158.13
-141.83
-122.25
-102.19
-83.79
-67.93
-54.10
-40.53
-24.91
-5.37
18.43
44.62
69.32
87.83
96.45
94.07
82.82
67.22
52.49
42.48
38.34
38.56
40.20
40.39
37.89
33.39
28.74
25.58
24.39
24.51
25.16
26.66
30.76
39.89
55.57
77.21
101.97
125.89
145.33
157.74
161.35
154.47
135.41
103.57
61.14
14.02
-29.18
-59.95
-73.24
-69.36
-53.52
-33.21
-15.34
-4.14
-0.81
-4.77
-14.97
-30.60
-50.97
-74.78
-99.64
-122.51
-140.64
-152.81
-159.98
-164.88
-170.71
-179.60
-191.47
-203.99
-213.37
-215.78
-208.45
-190.48
-162.96
-128.73
-91.72
-55.95
-24.23
2.83
27.11
52.06
80.83
114.36
150.45
184.13
209.29
220.75
215.87
195.39
163.21
125.40
88.63
58.35
37.33
25.26
19.42
16.49
14.25
12.40
11.95
13.81
17.72
22.12
25.26
26.41
26.24
26.15
27.07
29.00
31.62
35.22
41.08
50.46
62.91
75.16
81.97
78.66
64.16
42.28
20.36
5.79
2.39
8.76
19.54
28.44
31.39
27.87
20.05
10.69
1.19
-8.97
-21.35
-36.97
-55.02
-72.91
-87.50
-96.95
-102.09
-106.37
-114.28
-128.91
-150.05
-173.70
-193.56
-203.51
-199.92
-182.45
-153.38
-116.25
-74.88
-33.22
4.31
33.28
50.60
56.47
55.32
54.55
61.22
78.36
103.00
127.23
141.94
141.03
124.03
95.73
63.41
33.48
9.14
-9.64
-24.70
-37.64
-48.72
-56.82
-60.50
-59.12
-53.27
-44.45
-34.13
-23.02
-10.90
3.05
19.59
39.08
61.38
85.74
110.61
133.35
150.35
157.95
153.82
138.45
115.51
90.88
70.49
58.08
53.94
55.36
58.22
58.92
55.58
48.04
37.20
24.06
9.31
-6.58
-22.85
-38.20
-50.97
-59.87
-64.76
-67.11
-69.62
-75.26
-85.93
-101.70
-120.69
-140.10
-157.36
-171.10
-181.21
-188.16
-191.94
-191.51
-184.95
-170.20
-145.89
-111.72
-68.45
-17.63
38.42
96.46
152.22
200.75
237.38
258.87
264.26
254.82
233.35
203.12
167.25
128.55
89.75
53.58
22.42
-2.25
-20.29
-32.75
-41.17
-46.56
-48.83
-46.90
-39.63
-26.78
-9.40
10.60
31.32
51.53
70.47
87.09
99.16
103.38
96.62
77.77
49.15
16.44
-13.16
-33.60
-42.31
-40.82
-33.72
-26.41
-22.96
-25.10
-32.42
-43.37
-56.39
-70.59
-85.70
-101.58
-117.73
-133.16
-146.77
-157.99
-167.25
-176.01
-186.03
-198.25
-211.77
-223.69
-230.00
-227.10
-213.07
-188.25
-154.56
-114.55
-70.81
-26.02
16.61
53.55
82.12
102.20
117.08
132.53
154.10
183.87
218.69
251.00
271.87
274.63
257.02
221.05
171.18
112.29
48.59
-16.12
-77.65
-131.02
-171.04
-193.57
-196.78
-181.75
-152.09
-112.83
-68.95
-24.28
18.90
59.64
97.41
131.23
159.25
179.07
188.68
187.57
177.25
160.94
142.58
125.60
112.14
102.96
97.88
96.45
98.27
102.93
109.82
117.94
125.96
132.51
136.44
136.95
133.40
125.12
111.34
91.51
65.87
35.94
4.40
-25.55
-51.33
-71.95
-88.23
-102.32
-116.49
-132.13
-149.23
-166.64
-182.95
-197.27
-209.48
-219.63
-226.94
-228.93
-221.67
-201.20
-165.88
-118.26
-65.38
-16.68
19.62
40.03
47.28
48.79
52.83
64.40
82.93
102.97
117.17
119.86
109.30
87.55
58.74
26.81
-5.79
-37.99
-69.02
-97.42
-120.73
-136.34
-142.64
-139.95
-130.59
-117.84
-104.48
-91.51
-77.83
-61.12
-39.32
-11.91
19.78
53.30
86.14
116.35
142.42
162.59
174.51
175.79
165.27
144.38
117.31
89.77
66.83
50.97
41.45
35.25
28.90
20.17
8.71
-4.39
-17.65
-30.16
-41.85
-53.14
-64.26
-74.78
-83.72
-90.26
-94.41
-97.36
-100.99
-106.98
-115.83
-126.55
-137.10
-145.15
-148.72
-146.42
-137.22
-120.56
-96.82
-67.97
-37.82
-10.99
8.98
21.62
30.10
39.80
55.43
78.22
104.93
129.21
144.35
145.98
133.41
109.20
77.77
43.82
11.28
-17.10
-39.64
-55.56
-64.68
-67.18
-63.40
-53.84
-39.35
-21.29
-1.47
18.23
36.29
51.72
63.81
71.86
75.53
75.65
74.76
76.45
83.43
95.30
107.76
114.37
110.01
94.38
72.84
53.94
44.91
47.62
57.63
66.84
67.96
58.16
39.84
18.37
-1.46
-18.03
-33.04
-49.64
-69.72
-92.32
-113.88
-130.33
-139.50
-142.63
-143.91
-148.41
-159.44
-176.76
-196.47
-212.54
-219.00
-211.59
-188.44
-150.07
-99.42
-42.18
13.33
57.65
83.40
88.89
80.11
69.13
69.15
88.34
125.64
171.18
210.65
231.63
228.37
202.98
162.98
117.26
72.59
32.35
-2.64
-32.47
-56.60
-73.43
-80.98
-78.07
-65.49
-46.13
-24.21
-3.83
12.55
24.54
33.38
40.86
48.37
56.54
65.42
74.58
83.00
88.92
89.98
84.23
71.30
53.24
34.08
18.25
8.62
5.35
6.13
7.71
7.65
5.21
1.07
-3.74
-8.91
-15.12
-23.65
-35.38
-50.07
-66.06
-80.81
-91.96
-98.46
-101.18
-102.73
-106.28
-114.07
-126.22
-140.60
-153.73
-162.15
-163.47
-156.58
-141.42
-118.65
-89.76
-57.47
-25.53
2.31
24.01
40.65
56.45
76.87
105.81
143.20
184.33
221.36
246.25
253.47
241.35
211.72
168.46
116.03
58.70
0.48
-54.53
-101.97
-137.73
-158.78
-163.96
-154.31
-132.63
-102.60
-68.05
-32.47
0.88
28.64
47.53
55.15
51.32
38.97
23.66
11.55
6.66
8.91
14.26
17.27
14.52
6.93
-0.48
-1.42
7.97
26.79
49.73
69.82
81.95
84.86
80.81
73.31
64.58
54.39
40.60
21.08
-4.22
-32.42
-58.52
-77.61
-87.10
-87.92
-84.01
-80.28
-80.14
-84.03
-89.54
-93.06
-91.78
-84.62
-71.87
-54.05
-31.28
-3.98
25.61
52.65
70.94
76.07
68.63
55.19
45.85
49.28
68.04
96.82
124.61
139.75
134.98
110.08
71.10
27.04
-13.95
-47.10
-71.30
-87.98
-99.22
-106.42
-109.87
-109.28
-104.54
-96.17
-85.17
-72.19
-57.10
-39.16
-17.86
6.14
30.72
53.09
70.93
83.07
89.39
90.03
84.77
73.41
56.83
38.07
22.19
14.57
18.44
33.09
53.69
73.37
86.03
88.68
82.01
69.08
53.26
36.43
18.57
-1.39
-24.09
-48.56
-72.08
-91.26
-103.63
-109.13
-110.30
-111.26
-115.71
-125.06
-137.62
-149.43
-156.09
-154.54
-143.83
-124.69
-98.62
-67.29
-32.87
1.38
31.18
52.61
64.35
69.30
74.15
86.64
111.56
147.72
187.83
221.22
238.20
233.57
207.70
165.13
111.98
53.94
-4.39
-59.03
-105.96
-141.25
-162.00
-167.55
-159.88
-142.95
-121.24
-98.02
-74.57
-50.40
-24.52
3.28
31.82
58.79
81.86
99.65
112.01
119.36
121.71
118.05
106.88
87.62
62.02
34.52
11.05
-3.17
-5.80
1.73
14.94
28.29
37.27
39.57
35.30
26.05
13.81
0.02
-14.71
-30.38
-46.93
-63.71
-79.29
-91.91
-100.39
-104.87
-106.89
-108.52
-111.20
-114.84
-117.96
-118.72
-116.04
-109.90
-100.45
-86.85
-66.99
-38.75
-2.37
37.90
74.29
98.60
106.31
99.29
85.24
73.96
72.40
81.40
95.72
107.15
108.64
97.26
74.62
44.92
12.46
-20.12
-51.92
-82.69
-111.45
-136.05
-153.67
-162.02
-160.44
-150.02
-132.91
-111.07
-85.55
-56.44
-23.95
10.60
44.45
74.19
97.28
113.15
122.99
128.42
129.86
126.01
114.97
96.47
73.48
51.96
38.44
36.76
45.94
60.51
73.22
78.52
74.92
64.80
52.35
40.83
30.91
20.94
8.51
-7.54
-26.19
-44.71
-60.26
-71.49
-79.19
-85.80
-93.95
-105.02
-118.52
-132.37
-143.83
-150.33
-149.91
-141.29
-124.10
-99.49
-70.35
-41.00
-15.69
3.45
17.70
31.37
49.62
75.34
107.13
139.33
164.11
174.53
167.01
142.30
104.85
61.24
18.31
-18.39
-45.52
-62.34
-70.22
-71.64
-69.12
-64.37
-58.24
-51.11
-43.26
-35.04
-26.68
-18.12
-9.26
-0.39
7.75
14.54
20.34
26.80
35.96
48.64
63.05
75.09
80.28
76.50
65.67
53.15
44.96
44.62
51.27
60.34
66.22
65.17
56.90
44.06
30.26
17.95
7.52
-2.32
-13.14
-25.41
-37.95
-48.57
-55.31
-57.84
-58.03
-59.31
-65.14
-77.24
-94.55
-113.49
-129.35
-138.11
-137.78
-128.56
-112.08
-90.47
-65.76
-40.07
-15.88
4.21
18.46
27.20
33.30
41.35
55.55
77.38
104.36
130.54
148.61
152.63
140.20
113.26
77.29
39.34
5.75
-19.58
-35.82
-44.57
-48.43
-49.69
-49.66
-48.79
-47.23
-45.20
-42.73
-39.34
-33.90
-25.04
-11.88
5.41
25.73
47.38
68.41
86.49
98.73
102.19
94.99
77.86
54.77
31.90
15.29
8.29
10.19
16.88
23.14
25.00
21.19
12.94
2.70
-7.37
-16.28
-24.25
-32.17
-40.86
-50.53
-60.62
-70.02
-77.67
-83.26
-87.58
-92.37
-99.40
-109.45
-121.43
-132.67
-139.85
-140.28
-132.72
-117.26
-94.64
-65.70
-31.60
5.38
41.09
70.12
87.60
91.74
85.39
75.46
69.98
74.31
88.44
106.95
121.60
125.20
114.66
91.74
61.54
29.84
0.91
-23.27
-42.42
-56.81
-66.33
-70.39
-68.56
-61.26
-50.01
-36.97
-24.08
-12.20
-0.93
10.83
23.91
38.22
52.57
65.31
75.04
80.90
82.37
78.77
69.34
54.00
34.50
14.90
0.40
-4.82
0.13
12.15
25.56
34.86
37.26
33.62
27.29
21.74
18.57
16.88
14.12
7.83
-2.86
-16.69
-30.95
-42.77
-50.53
-54.68
-57.55
-62.16
-70.51
-82.32
-95.02
-104.86
-108.58
-104.50
-92.63
-73.99
-50.07
-22.97
4.05
26.46
39.80
42.17
36.29
29.59
31.47
48.56
80.79
120.49
155.11
172.41
165.11
133.21
83.01
24.16
-33.58
-82.55
-117.95
-137.61
-141.50
-131.39
-110.64
-83.80
-55.81
-30.93
-11.76
1.41
10.17
17.08
24.42
33.43
44.24
56.47
69.69
83.43
96.68
107.39
112.77
110.53
100.28
84.38
67.25
53.52
45.94
44.24
45.65
46.61
44.47
38.18
27.89
13.88
-4.22
-27.20
-55.37
-87.31
-119.49
-147.02
-165.44
-172.71
-170.20
-162.18
-153.86
-148.98
-148.15
-148.78
-146.74
-138.55
-123.10
-101.73
-76.99
-50.85
-23.80
4.56
33.98
62.20
85.10
98.61
101.11
94.89
85.45
78.79
78.32
83.07
88.43
88.76
80.58
64.31
43.88
24.57
10.43
2.66
-0.32
-1.45
-3.23
-6.45
-10.04
-11.88
-10.11
-4.11
5.21
15.94
26.08
34.32
40.22
43.95
45.95
46.83
47.49
49.15
52.83
58.41
63.82
65.36
59.48
45.08
25.04
5.55
-6.67
-7.78
1.24
15.10
27.11
32.49
30.19
22.37
12.21
1.55
-9.92
-23.89
-41.60
-62.32
-83.29
-101.03
-113.12
-119.60
-123.05
-127.38
-135.72
-148.72
-163.91
-176.50
-181.29
-174.54
-154.90
-123.07
-81.05
-31.45
22.49
76.58
125.91
166.03
194.65
212.65
223.43
230.88
236.77
239.62
235.50
220.26
191.87
151.36
102.04
48.04
-6.93
-59.72
-107.03
-145.01
-169.72
-178.57
-171.60
-152.07
-125.50
-97.67
-72.61
-51.50
-33.01
-14.73
5.23
27.28
50.21
71.91
90.10
102.81
108.51
106.16
95.50
77.69
55.67
33.77
16.44
6.65
4.66
7.96
12.41
14.09
10.82
2.64
-8.75
-21.25
-33.56
-45.63
-58.27
-72.19
-87.16
-101.80
-114.17
-122.76
-127.27
-128.61
-128.17
-126.93
-124.92
-121.43
-115.67
-107.17
-95.53
-79.90
-58.68
-30.28
5.20
44.38
80.40
105.03
112.27
101.76
79.68
56.46
42.27
42.51
55.78
75.22
92.18
100.27
97.50
86.02
69.87
52.51
35.46
18.39
0.55
-18.00
-35.77
-50.26
-59.07
-60.96
-56.46
-47.45
-36.22
-24.34
-12.12
1.03
15.52
30.70
44.86
56.25
64.49
71.03
78.09
86.59
94.43
96.89
89.08
69.44
41.86
14.81
-2.44
-4.42
7.71
26.79
43.32
50.00
44.55
29.58
10.04
-9.92
-28.72
-47.02
-65.98
-85.39
-103.11
-116.12
-122.35
-122.20
-118.68
-116.07
-117.83
-125.18
-136.62
-148.89
-158.23
-161.44
-156.06
-140.26
-113.05
-75.07
-29.49
18.02
60.87
94.16
116.83
131.93
144.61
158.81
174.78
188.81
195.42
190.41
173.08
146.21
114.27
81.14
48.85
17.78
-12.07
-39.89
-63.86
-81.71
-91.63
-92.87
-85.63
-70.56
-48.32
-19.64
14.04
50.08
84.62
113.67
134.45
146.36
150.62
148.82
141.24
126.20
101.24
65.18
19.98
-29.07
-75.02
-112.03
-137.34
-151.74
-158.34
-160.64
-161.18
-161.21
-161.12
-161.01
-160.76
-159.74
-156.74
-150.37
-139.83
-125.72
-110.18
-96.16
-86.29
-81.65
-81.32
-82.46
-81.13
-73.33
-56.12
-28.68
6.93
45.64
80.21
103.23
109.64
98.94
75.77
48.46
25.91
14.27
14.99
25.14
39.51
53.42
64.62
73.47
81.61
90.23
98.86
105.46
107.62
104.02
95.17
83.31
71.26
61.12
53.44
47.31
41.27
34.37
26.95
20.39
16.31
15.69
18.65
25.06
35.12
49.49
68.31
89.86
109.74
121.75
120.28
103.19
73.30
37.56
4.06
-21.42
-37.45
-46.64
-53.27
-60.52
-68.99
-77.09
-82.95
-86.29
-88.97
-94.00
-103.51
-117.03
-131.16
-140.92
-142.13
-133.21
-115.96
-94.49
-73.25
-55.20
-41.04
-29.58
-18.95
-7.63
5.07
19.24
34.75
51.48
68.94
85.95
100.69
111.51
117.97
121.47
124.65
129.76
136.86
143.01
143.20
132.62
109.06
74.25
33.16
-8.08
-44.54
-73.92
-96.35
-113.05
-124.95
-132.09
-133.91
-130.12
-121.32
-108.81
-93.79
-76.51
-56.16
-31.68
-2.98
28.38
59.51
87.52
110.59
128.38
141.18
148.75
149.81
142.72
127.05
104.70
79.59
55.94
36.14
19.59
3.32
-15.87
-39.23
-65.02
-89.36
-108.14
-119.12
-122.73
-121.57
-118.79
-116.52
-115.09
-113.50
-110.57
-106.01
-100.70
-96.14
-93.36
-92.28
-91.61
-89.32
-83.23
-71.41
-52.59
-26.76
3.86
34.46
58.46
70.00
67.03
53.27
37.37
29.20
35.00
54.17
79.47
100.69
109.57
103.25
84.60
59.65
33.99
10.40
-11.24
-32.24
-53.02
-71.99
-86.19
-92.92
-91.45
-83.60
-72.94
-62.87
-54.74
-47.04
-36.09
-18.09
8.86
43.65
82.71
121.38
155.47
181.84
198.13
202.33
192.94
169.94
136.01
96.78
59.54
30.74
13.61
7.13
7.03
8.06
6.43
0.93
-7.42
-16.73
-25.58
-33.61
-41.24
-48.83
-56.23
-62.89
-68.47
-73.47
-79.17
-86.97
-97.31
-109.05
-119.68
-126.23
-126.47
-119.71
-106.83
-89.79
-70.87
-52.24
-35.63
-22.17
-12.02
-4.05
4.18
15.71
32.96
56.35
83.66
110.53
131.93
143.86
144.54
134.60
116.35
92.73
66.48
39.80
14.47
-7.84
-25.59
-37.48
-42.96
-42.39
-37.22
-29.58
-21.83
-15.80
-12.18
-10.37
-8.73
-5.24
1.67
12.79
28.02
46.63
67.26
87.66
104.30
112.79
109.09
91.59
62.66
28.67
-2.02
-22.31
-29.16
-24.46
-13.64
-2.73
4.30
6.54
5.32
2.41
-1.57
-7.36
-16.21
-28.47
-42.79
-56.46
-66.69
-72.00
-73.08
-72.36
-72.74
-75.98
-81.94
-88.86
-94.60
-97.84
-98.49
-96.91
-92.84
-84.76
-70.50
-48.83
-20.87
9.80
38.79
63.19
83.15
101.49
121.49
144.21
167.09
184.65
190.98
182.43
159.10
124.46
83.61
41.35
0.88
-36.29
-69.74
-99.34
-124.69
-144.99
-159.09
-165.84
-164.29
-153.97
-134.91
-107.77
-73.83
-35.14
5.43
44.25
77.62
102.81
119.11
128.21
133.21
136.83
139.63
139.49
132.91
117.41
93.71
66.08
40.65
22.43
12.85
9.22
6.42
-0.22
-12.54
-28.91
-45.55
-58.83
-67.18
-71.49
-74.19
-77.48
-82.05
-87.00
-90.83
-92.84
-94.00
-96.56
-102.74
-113.23
-126.46
-139.07
-147.23
-147.91
-139.55
-121.90
-95.53
-61.84
-23.46
15.28
48.65
71.20
80.14
77.19
68.53
62.43
65.59
80.13
102.68
126.19
143.23
149.00
142.59
126.19
103.15
76.35
47.62
18.32
-9.79
-34.24
-52.52
-63.29
-67.38
-67.69
-67.95
-70.80
-76.19
-81.15
-80.97
-71.50
-51.00
-20.84
15.22
52.59
87.12
115.45
134.80
142.76
137.88
120.75
94.76
65.61
39.48
20.68
10.17
5.71
3.67
1.11
-2.83
-7.17
-10.35
-11.66
-11.87
-12.78
-16.06
-22.30
-30.65
-39.29
-46.42
-51.16
-53.86
-55.75
-58.10
-61.39
-65.07
-68.00
-69.12
-67.91
-64.31
-58.17
-49.02
-36.44
-20.96
-4.91
7.88
13.71
11.29
3.29
-4.21
-4.23
7.64
30.81
59.63
85.81
101.90
104.10
93.07
72.70
47.82
22.22
-2.25
-25.26
-46.98
-67.14
-84.65
-97.88
-105.28
-106.03
-100.31
-89.12
-73.69
-55.02
-33.71
-10.42
13.42
35.12
51.35
59.82
60.97
58.43
57.31
61.18
69.54
77.74
79.78
72.39
57.65
42.34
34.04
36.59
47.68
60.20
66.34
61.99
48.44
30.95
15.20
4.09
-3.17
-9.62
-18.00
-28.70
-39.50
-46.94
-48.54
-44.34
-37.05
-30.65
-28.40
-31.23
-37.53
-44.19
-48.18
-47.58
-41.68
-30.35
-13.66
7.63
31.30
53.20
68.47
73.76
69.56
60.67
54.22
56.02
67.25
83.64
97.42
101.27
91.58
69.76
40.72
10.09
-18.28
-43.30
-65.76
-86.79
-106.45
-123.43
-135.62
-141.30
-140.06
-132.90
-121.43
-106.72
-88.59
-65.85
-37.56
-4.37
30.81
63.75
90.88
110.91
125.03
135.15
141.75
143.08
136.33
120.22
97.04
72.55
53.39
43.86
43.18
46.20
46.76
41.29
30.42
17.54
5.65
-5.44
-18.95
-40.00
-71.79
-112.17
-153.46
-185.46
-200.74
-198.34
-184.21
-166.98
-154.90
-151.64
-154.47
-156.38
-149.86
-130.68
-98.39
-54.89
-1.68
58.08
118.63
172.26
210.83
229.03
226.45
208.59
176.47
138.92
106.10
80.90
59.90
35.40
5.08
-29.29
-63.96
-95.15
-119.85
-138.13
-151.78
-161.82
-167.69
-167.35
-159.52
-144.59
-124.88
-102.83
-80.94
-60.27
-39.24
-14.66
16.57
54.97
98.06
141.06
179.07
207.75
224.10
226.72
215.34
191.19
157.23
118.45
80.90
49.96
28.07
13.87
2.98
-10.14
-29.26
-54.01
-78.60
-94.44
-96.08
-84.88
-67.61
-52.27
-44.73
-46.36
-53.87
-61.40
-63.79
-59.06
-48.68
-37.13
-27.96
-23.68
-24.69
-29.00
-33.34
-34.63
-30.72
-20.07
-1.46
25.63
58.72
90.36
110.17
109.56
86.23
46.21
2.24
-31.58
-46.07
-41.00
-24.00
-5.65
6.17
9.32
5.28
-2.77
-12.24
-22.17
-32.97
-44.70
-55.73
-63.00
-63.45
-55.86
-41.47
-23.52
-5.93
7.72
15.95
20.30
24.49
32.47
46.28
65.23
86.30
105.74
120.77
130.57
135.67
136.38
131.56
118.88
96.63
65.70
30.34
-3.01
-28.27
-42.33
-46.15
-43.86
-40.46
-39.47
-41.86
-46.47
-51.26
-54.69
-56.30
-56.66
-56.77
-57.30
-58.21
-58.78
-58.09
-55.62
-51.72
-47.43
-43.89
-41.45
-39.10
-34.73
-26.27
-12.88
4.64
24.47
45.09
66.07
87.55
108.69
126.14
134.31
127.70
104.46
68.77
30.20
0.08
-13.63
-9.80
5.64
22.97
33.28
31.87
19.00
-1.85
-26.66
-52.75
-79.01
-104.92
-129.26
-149.63
-163.21
-168.04
-164.31
-154.67
-143.27
-133.97
-128.39
-125.02
-119.83
-108.26
-87.32
-56.73
-18.59
24.06
68.21
110.97
148.59
175.87
186.98
177.97
149.54
108.24
64.87
30.52
12.24
10.60
20.40
33.72
43.70
46.87
43.42
35.80
26.78
18.14
10.37
3.03
-4.56
-12.80
-21.48
-29.77
-36.38
-39.92
-39.36
-34.32
-25.22
-13.11
0.63
14.65
27.85
39.40
48.92
56.65
63.64
71.54
81.73
94.01
105.57
111.33
105.84
86.28
54.79
18.81
-11.39
-26.93
-24.16
-6.31
18.02
38.67
47.90
42.86
25.56
1.01
-25.32
-49.33
-68.96
-83.80
-94.17
-100.41
-102.68
-101.22
-96.85
-91.36
-87.08
-85.93
-87.96
-90.52
-88.84
-78.22
-56.72
-26.65
6.17
35.50
57.69
72.98
83.86
91.98
95.91
91.71
76.06
49.75
18.85
-7.64
-22.28
-22.99
-13.78
-2.14
5.13
4.95
-1.61
-11.17
-20.53
-28.05
-33.60
-37.59
-40.08
-40.77
-39.51
-37.02
-34.88
-34.96
-38.45
-44.94
-52.31
-57.32
-56.83
-49.15
-34.87
-16.94
0.18
11.87
14.89
8.50
-5.00
-20.69
-32.42
-34.87
-25.72
-6.93
15.78
35.21
45.99
47.26
43.25
41.18
47.60
64.89
89.88
115.15
132.29
135.17
121.90
94.54
57.46
15.41
-27.53
-68.10
-103.30
-130.12
-145.96
-149.47
-141.30
-124.27
-102.58
-80.45
-60.87
-44.97
-32.09
-20.49
-8.26
5.88
21.93
38.44
52.78
62.27
65.44
63.16
58.52
55.30
55.79
58.94
60.32
54.12
36.28
7.07
-28.50
-62.58
-87.73
-99.72
-98.55
-87.46
-70.91
-52.66
-34.85
-18.20
-2.74
11.49
24.20
34.96
43.57
50.22
55.42
59.83
64.00
68.11
71.95
74.93
76.34
75.66
72.86
68.56
63.75
59.41
56.09
53.67
51.69
49.87
48.55
48.62
50.91
55.19
59.55
60.64
55.02
41.00
20.08
-3.04
-21.92
-30.77
-26.74
-10.94
12.05
35.95
54.70
64.00
61.85
48.34
25.23
-4.58
-37.47
-69.45
-96.85
-116.95
-128.60
-132.36
-130.05
-123.84
-115.34
-104.96
-91.96
-75.11
-53.69
-28.19
-0.56
26.18
48.73
64.24
70.95
68.77
59.63
47.51
37.56
34.17
38.67
47.84
54.67
51.37
33.51
3.00
-32.03
-60.67
-74.35
-70.61
-53.86
-32.56
-14.93
-5.51
-4.27
-8.22
-14.07
-20.08
-26.37
-33.83
-42.68
-51.78
-58.98
-62.33
-61.25
-57.09
-52.62
-50.73
-52.85
-58.08
-63.23
-64.26
-58.05
-43.79
-23.23
0.42
23.79
44.27
59.93
68.91
69.10
58.97
39.08
13.33
-11.20
-26.29
-25.61
-7.36
25.09
64.52
102.55
132.25
149.56
153.36
144.67
125.74
99.28
68.18
35.12
2.47
-27.90
-54.58
-76.46
-92.61
-102.26
-105.02
-101.20
-91.95
-79.27
-65.59
-53.25
-43.87
-37.93
-34.71
-32.59
-29.68
-24.57
-16.84
-7.20
2.71
10.84
15.23
14.59
8.86
-0.19
-8.88
-12.43
-6.83
8.96
31.80
55.14
71.72
77.06
71.53
59.96
48.79
42.51
41.58
42.90
42.29
37.25
28.20
17.64
8.16
0.69
-5.73
-12.83
-21.57
-31.24
-39.83
-45.22
-46.48
-44.38
-40.95
-38.26
-37.34
-37.74
-37.89
-36.03
-31.22
-23.82
-15.39
-8.08
-3.67
-2.75
-3.99
-4.03
1.68
17.00
42.83
75.31
105.91
124.02
121.27
95.81
54.01
8.78
-25.36
-37.77
-25.38
6.91
48.89
89.13
118.26
130.54
123.75
98.23
56.20
1.64
-59.59
-120.09
-171.91
-208.29
-225.20
-222.10
-201.87
-169.89
-132.41
-95.13
-62.20
-35.67
-15.55
-0.16
13.08
26.25
39.99
53.54
65.68
75.97
85.31
95.12
105.61
114.84
118.22
110.76
90.21
59.07
23.83
-8.15
-32.13
-47.70
-57.03
-63.23
-67.81
-69.93
-67.05
-56.86
-38.50
-12.78
18.27
52.45
86.06
114.37
132.94
139.76
136.07
125.48
111.85
91.78
64.46
30.57
-7.61
-46.20
-79.07
-101.50
-111.94
-112.04
-106.01
-98.31
-93.09
-90.43
-90.04
-90.11
-85.68
-73.09
-51.22
-21.95
11.00
42.38
66.96
80.40
80.74
68.60
48.89
23.86
-3.69
-30.09
-52.46
-69.34
-80.95
-88.23
-92.45
-95.12
-95.67
-93.64
-88.39
-79.66
-67.70
-53.15
-36.41
-17.72
2.52
23.43
44.05
63.54
81.23
96.73
109.78
120.12
127.22
130.07
127.44
118.80
105.13
89.21
75.05
66.43
65.10
69.50
74.91
75.12
65.29
44.30
15.38
-15.23
-40.94
-57.45
-64.00
-62.82
-57.37
-50.50
-43.43
-36.06
-27.94
-19.32
-11.47
-6.30
-5.55
-10.08
-19.56
-32.60
-47.45
-62.51
-76.77
-89.81
-101.53
-111.67
-119.40
-123.20
-121.19
-111.88
-94.94
-71.65
-44.48
-16.03
12.08
39.63
67.07
94.04
118.07
134.71
139.23
129.32
107.07
78.98
53.66
38.31
35.80
43.86
56.70
67.99
73.47
72.10
65.19
54.68
41.53
25.47
5.87
-16.94
-40.85
-62.30
-77.56
-84.27
-82.22
-73.46
-61.38
-49.62
-41.03
-37.07
-37.42
-39.96
-41.33
-37.98
-27.58
-9.91
13.03
37.85
60.88
79.01
89.90
91.90
84.22
67.56
44.70
20.40
0.18
-11.79
-14.34
-9.75
-2.40
3.36
5.04
2.59
-2.43
-8.27
-14.00
-19.73
-26.16
-33.87
-42.78
-52.02
-60.25
-66.21
-69.33
-70.00
-69.46
-69.09
-69.68
-70.98
-71.89
-71.05
-67.47
-60.55
-49.85
-34.85
-15.31
7.78
31.54
51.47
63.19
64.85
58.73
50.88
48.41
56.10
73.86
96.62
116.73
127.23
124.41
108.44
82.15
49.28
13.05
-24.04
-59.77
-91.60
-116.66
-132.33
-137.10
-131.30
-117.21
-98.62
-79.81
-64.33
-53.87
-47.58
-42.48
-34.82
-21.85
-2.92
20.54
46.16
71.91
96.60
119.21
137.80
148.98
148.83
134.96
108.50
74.54
40.60
13.72
-2.19
-7.42
-5.41
-0.56
3.94
6.89
8.63
9.88
10.70
10.32
7.63
2.08
-5.82
-14.70
-23.16
-30.53
-37.27
-44.54
-53.22
-62.87
-71.36
-75.43
-72.13
-60.12
-40.43
-16.04
9.16
31.57
48.65
59.07
62.56
59.83
52.50
43.09
34.62
29.61
29.21
32.43
36.47
37.82
33.69
23.09
7.00
-12.31
-32.41
-51.49
-68.67
-83.66
-96.24
-105.85
-111.65
-112.86
-109.25
-101.40
-90.47
-77.81
-64.56
-51.52
-39.19
-27.90
-17.83
-8.86
-0.50
7.95
17.29
28.29
41.63
57.81
76.75
97.29
116.83
131.48
137.09
130.85
112.64
85.45
54.42
25.01
1.13
-15.76
-26.34
-32.23
-34.86
-34.99
-33.06
-29.76
-26.42
-24.72
-26.00
-30.48
-37.11
-43.91
-48.80
-50.44
-48.63
-44.40
-39.49
-35.78
-34.48
-35.60
-37.73
-38.44
-34.96
-25.10
-7.92
15.91
44.03
72.59
96.79
111.95
114.99
105.86
88.13
68.16
52.88
47.10
51.76
63.94
78.54
90.67
97.28
97.45
91.46
79.72
62.25
39.02
10.69
-20.89
-52.67
-81.11
-103.12
-116.83
-121.98
-119.79
-112.41
-102.24
-91.29
-80.77
-70.97
-61.24
-50.16
-35.84
-16.36
9.40
41.02
76.01
110.15
138.31
155.84
159.52
148.07
122.20
84.34
38.40
-10.49
-56.47
-93.69
-117.49
-125.47
-118.17
-98.85
-72.58
-44.85
-20.09
-0.92
12.11
19.86
23.83
25.27
24.75
22.11
16.84
8.56
-2.64
-16.14
-30.93
-45.95
-60.25
-72.96
-83.11
-89.40
-90.12
-83.39
-67.72
-42.70
-9.72
27.81
64.79
95.49
115.09
121.04
113.97
97.50
77.04
57.97
44.04
36.49
34.33
35.37
37.33
38.45
37.47
33.28
24.69
10.78
-8.60
-32.28
-57.77
-81.84
-101.37
-114.28
-119.94
-119.04
-113.11
-103.87
-92.67
-80.30
-67.04
-52.90
-37.94
-22.46
-6.97
7.95
21.76
34.08
44.54
52.68
58.02
60.37
60.15
58.52
56.91
56.11
55.59
53.59
48.08
38.22
25.34
12.83
4.76
3.90
10.34
21.38
32.83
40.97
44.09
42.89
39.53
36.19
33.82
31.97
29.50
25.65
20.74
16.07
13.14
12.70
14.30
16.47
17.25
14.79
7.64
-4.91
-22.54
-43.48
-64.48
-81.48
-90.81
-90.46
-80.54
-62.78
-39.60
-13.53
12.54
34.79
48.62
50.01
37.94
16.15
-7.29
-22.80
-23.49
-8.37
17.25
44.20
63.51
69.74
62.06
43.22
17.36
-11.80
-41.59
-69.92
-94.68
-113.55
-124.55
-126.88
-121.56
-111.27
-99.56
-89.56
-82.83
-78.77
-74.87
-67.76
-54.61
-34.22
-7.35
23.62
55.42
84.66
108.22
123.57
129.06
124.36
110.90
91.84
71.45
53.85
41.91
36.55
36.97
41.26
47.18
52.45
54.94
52.66
44.11
28.87
8.01
-15.88
-39.32
-58.97
-72.70
-80.12
-82.43
-81.72
-80.04
-78.66
-77.85
-77.10
-75.59
-72.62
-67.79
-60.95
-52.12
-41.40
-28.94
-14.88
0.88
18.76
39.20
62.01
85.61
106.81
121.61
126.76
121.45
108.19
92.11
79.01
72.98
74.84
82.04
90.00
93.89
90.24
77.58
56.23
27.67
-5.95
-42.08
-77.82
-110.01
-135.64
-152.47
-159.49
-157.24
-147.59
-133.26
-117.19
-101.99
-89.38
-79.76
-71.97
-63.50
-51.34
-33.30
-9.09
19.33
48.61
75.55
98.30
116.50
130.35
139.42
142.12
136.58
122.26
101.22
78.08
58.41
46.44
43.38
47.25
54.28
60.76
64.47
64.88
62.56
58.26
52.36
44.92
36.06
26.25
16.38
7.31
-0.75
-8.65
-18.36
-32.23
-51.83
-76.66
-103.74
-128.23
-145.09
-151.23
-146.77
-134.92
-120.35
-106.87
-95.88
-86.35
-76.38
-65.16
-54.07
-46.06
-43.76
-47.51
-54.69
-60.52
-60.28
-51.26
-33.86
-11.24
11.96
31.06
42.35
43.61
34.43
16.52
-6.23
-28.20
-43.44
-47.40
-38.56
-19.09
6.02
30.77
50.20
61.75
65.35
62.70
56.17
48.26
41.56
38.54
40.75
47.64
55.92
60.29
55.88
40.99
18.46
-5.32
-23.52
-32.17
-31.87
-26.70
-21.44
-18.81
-18.35
-17.56
-13.93
-6.61
3.30
13.62
22.41
28.62
32.21
33.76
34.05
33.76
33.39
33.08
32.67
31.75
29.96
27.26
24.03
20.72
17.44
13.63
8.18
-0.06
-11.46
-25.20
-39.40
-51.86
-61.01
-66.30
-68.04
-66.69
-62.32
-54.81
-44.64
-33.62
-24.93
-21.98
-26.58
-37.51
-50.50
-59.83
-60.94
-52.47
-36.67
-18.04
-1.05
11.72
20.00
24.92
27.60
28.27
26.42
21.63
14.51
6.88
1.16
-0.67
2.10
8.73
17.51
26.57
34.47
40.47
44.51
46.96
48.43
49.61
51.02
52.88
54.89
56.43
56.92
56.29
55.09
54.15
53.86
53.64
51.97
47.19
38.57
27.06
15.16
5.85
1.24
1.57
5.28
9.77
12.67
12.60
9.34
3.45
-4.33
-13.33
-23.01
-32.76
-41.82
-49.34
-54.64
-57.36
-57.66
-56.15
-53.74
-51.44
-50.15
-50.31
-51.59
-52.77
-52.04
-47.64
-38.63
-25.36
-9.30
7.51
23.20
36.37
46.18
52.09
53.89
51.93
47.38
42.33
39.18
39.92
45.36
54.99
67.14
79.48
89.33
93.77
89.91
75.50
49.82
14.54
-26.17
-66.50
-100.68
-124.70
-137.31
-139.97
-135.79
-128.11
-119.34
-110.56
-101.76
-92.50
-82.29
-70.77
-57.53
-42.04
-23.94
-3.53
17.67
37.07
51.85
60.19
62.22
59.88
55.73
51.38
46.73
40.41
31.30
20.01
9.22
2.58
2.70
9.64
20.61
31.30
37.80
38.14
32.73
23.50
12.74
2.09
-7.70
-16.53
-24.37
-30.91
-35.49
-37.37
-36.11
-31.89
-25.66
-18.99
-13.61
-10.79
-10.82
-12.84
-15.08
-15.64
-13.13
-7.10
2.06
13.52
26.23
38.92
49.83
56.76
57.79
52.43
42.70
33.25
30.06
38.05
58.74
89.10
122.27
149.84
164.65
162.74
144.03
111.53
70.00
24.53
-20.36
-61.16
-95.39
-121.65
-139.56
-149.62
-153.10
-151.80
-147.69
-142.54
-137.38
-132.23
-126.10
-117.44
-104.89
-87.85
-66.72
-42.66
-17.20
7.87
30.47
48.02
57.67
57.19
46.10
26.63
3.51
-17.34
-30.88
-34.73
-29.89
-19.90
-9.14
-0.96
3.47
5.05
5.72
7.18
9.98
13.58
17.17
20.51
24.39
30.07
38.35
48.68
59.01
66.60
69.29
66.54
59.80
51.81
45.44
42.47
42.94
45.38
47.54
47.43
44.09
37.87
30.13
22.75
17.59
16.27
19.85
28.47
40.93
54.47
65.18
69.32
64.94
53.14
37.97
24.93
18.60
20.56
28.62
37.93
43.11
40.38
28.67
9.29
-15.23
-42.43
-70.46
-97.85
-122.91
-143.41
-156.78
-160.99
-155.41
-141.31
-121.53
-99.55
-78.47
-60.30
-45.77
-34.55
-25.60
-17.48
-8.72
1.85
14.64
29.27
44.75
60.02
74.38
87.46
98.67
106.69
109.44
104.87
92.34
73.51
52.26
33.34
20.46
14.86
15.08
17.99
20.37
20.10
16.48
9.77
0.51
-10.99
-24.60
-40.07
-56.62
-72.72
-86.21
-94.78
-96.69
-91.55
-80.83
-67.70
-56.08
-49.24
-48.33
-51.73
-55.53
-55.10
-46.99
-30.22
-6.45
20.96
48.21
72.03
89.91
99.94
100.75
91.83
74.21
50.88
26.47
6.00
-6.65
-9.91
-4.69
6.25
19.27
30.56
36.59
34.51
22.58
0.86
-28.55
-61.73
-93.84
-120.32
-137.96
-145.37
-142.90
-132.11
-115.35
-95.32
-74.81
-56.27
-41.15
-29.26
-18.65
-6.27
10.63
32.95
59.09
85.40
107.80
123.53
132.09
134.72
132.98
127.39
117.19
101.37
80.23
56.22
33.45
16.01
6.11
3.28
5.02
8.27
10.90
12.24
12.61
12.35
11.03
7.48
0.47
-10.39
-24.20
-39.01
-52.73
-64.06
-72.92
-80.28
-87.38
-94.94
-102.74
-109.79
-114.70
-116.10
-112.77
-103.61
-87.86
-65.50
-37.69
-6.96
23.49
50.76
73.30
91.08
104.94
115.38
121.66
122.04
114.83
99.82
79.04
56.24
35.45
19.38
8.59
1.74
-3.39
-8.75
-15.45
-23.66
-32.98
-42.73
-52.02
-59.74
-64.57
-65.24
-61.01
-52.01
-39.38
-24.94
-10.70
1.75
11.57
18.77
24.03
28.37
32.67
37.41
42.46
47.21
50.79
52.45
51.72
48.65
43.81
38.34
33.81
31.83
33.52
39.05
47.46
57.04
66.03
73.30
78.65
82.42
84.65
84.51
80.38
70.80
55.69
37.11
18.71
4.22
-4.49
-8.39
-10.91
-16.25
-27.15
-43.37
-61.70
-77.28
-85.67
-84.69
-75.16
-60.35
-44.74
-32.47
-26.22
-26.70
-32.76
-41.67
-49.76
-53.12
-48.49
-34.41
-12.07
14.47
39.11
55.52
59.18
48.79
26.53
-3.09
-34.80
-63.92
-87.01
-101.74
-106.81
-102.11
-89.20
-71.49
-53.70
-40.54
-34.97
-37.17
-44.54
-52.95
-58.45
-58.75
-53.77
-45.21
-35.54
-26.94
-20.66
-16.79
-14.50
-12.29
-8.23
-0.29
13.07
32.21
55.65
80.13
101.61
116.91
125.07
127.60
127.31
126.35
124.76
120.45
110.88
95.18
75.37
55.84
41.18
33.88
33.26
36.11
38.73
38.67
35.48
29.93
22.75
13.68
1.68
-14.14
-33.56
-54.96
-76.01
-94.80
-110.57
-123.63
-134.58
-143.36
-148.77
-148.94
-142.33
-128.75
-109.81
-88.53
-68.37
-52.00
-40.40
-32.52
-25.75
-17.02
-4.14
13.17
33.10
52.44
67.89
77.28
80.17
77.50
70.76
61.17
49.40
35.75
20.63
4.76
-11.00
-25.91
-39.46
-51.02
-59.41
-62.82
-59.47
-48.68
-31.78
-12.02
6.41
20.05
27.40
29.24
27.92
26.02
25.35
26.63
29.76
34.47
40.68
48.42
57.45
66.85
75.00
79.99
80.30
75.59
67.03
57.15
48.88
44.42
44.24
46.84
49.55
49.70
45.90
38.63
29.88
22.21
17.63
16.87
19.27
23.27
27.19
29.91
31.01
30.60
28.75
25.17
19.12
9.91
-2.56
-17.40
-32.94
-47.31
-59.15
-68.09
-74.74
-80.37
-86.39
-93.96
-103.56
-114.68
-125.63
-133.85
-136.51
-131.50
-118.08
-96.94
-69.63
-37.97
-3.85
30.37
61.41
85.23
98.24
99.09
89.96
76.27
64.78
60.69
65.54
76.77
89.23
97.59
98.50
91.19
76.86
57.29
33.81
7.20
-21.86
-52.00
-80.98
-106.18
-125.41
-137.59
-142.91
-142.34
-136.95
-127.32
-113.48
-95.19
-72.51
-46.10
-17.42
11.45
38.03
59.83
74.99
82.86
84.40
81.99
78.41
75.58
73.59
70.77
64.90
54.75
41.17
26.84
14.99
7.66
4.75
4.33
4.02
2.36
-0.48
-3.14
-4.24
-3.35
-1.33
0.13
-0.48
-3.74
-8.99
-14.68
-19.01
-20.73
-19.56
-16.16
-11.78
-7.72
-4.75
-2.91
-1.55
0.39
3.87
9.54
17.60
27.99
40.40
54.23
68.39
81.15
90.40
94.28
92.03
84.45
73.76
62.64
53.08
45.48
38.64
30.58
19.64
5.34
-11.51
-29.52
-47.45
-64.74
-81.35
-97.24
-111.75
-123.45
-130.59
-131.94
-127.46
-118.52
-107.43
-96.49
-87.09
-79.21
-71.70
-63.07
-52.28
-39.22
-24.60
-9.49
5.21
18.91
31.23
41.71
49.78
54.95
57.24
57.36
56.52
55.87
55.86
56.01
55.26
52.78
48.70
44.20
40.97
40.20
41.92
44.86
47.14
47.16
44.35
39.19
32.77
25.97
19.02
11.53
2.91
-7.14
-18.37
-30.08
-41.38
-51.51
-59.94
-66.44
-71.05
-74.06
-75.90
-77.04
-77.73
-77.83
-76.78
-73.82
-68.17
-59.22
-46.44
-29.48
-8.34
16.24
42.38
67.16
87.14
99.48
102.93
98.25
87.90
75.04
62.52
52.19
44.73
39.94
37.00
34.69
31.44
25.64
15.98
1.91
-16.06
-36.31
-56.39
-73.56
-85.50
-90.83
-89.58
-83.14
-73.87
-64.34
-56.58
-51.43
-48.38
-45.78
-41.36
-32.95
-19.33
-0.82
20.72
42.45
61.54
76.24
86.16
91.99
94.60
94.35
91.00
84.34
74.94
64.38
54.64
47.14
41.95
37.86
33.28
27.26
19.94
12.26
5.01
-1.76
-8.84
-17.21
-27.25
-38.37
-49.28
-58.66
-65.91
-71.34
-75.78
-79.96
-84.02
-87.41
-89.27
-88.89
-86.02
-80.83
-73.64
-64.60
-53.64
-40.72
-26.05
-10.22
5.98
21.88
37.12
51.39
63.99
73.42
77.58
74.64
64.19
47.93
29.51
13.28
2.65
-1.19
0.51
4.88
8.79
9.95
7.44
1.49
-7.07
-17.25
-28.15
-38.97
-48.90
-57.21
-63.16
-66.18
-65.87
-62.07
-54.99
-45.25
-33.88
-22.11
-11.09
-1.44
6.90
14.61
22.48
30.84
39.28
46.80
52.55
56.40
59.22
62.31
66.55
71.65
76.10
77.90
75.64
69.33
60.36
50.80
42.40
35.91
31.08
27.14
23.43
19.62
15.58
11.16
5.95
-0.49
-8.38
-17.38
-26.65
-35.23
-42.44
-48.25
-53.23
-58.19
-63.77
-70.14
-77.09
-84.11
-90.40
-94.83
-95.90
-92.05
-82.29
-66.89
-47.61
-27.09
-7.91
8.49
21.89
32.75
41.16
46.38
47.28
43.42
36.05
28.18
23.37
24.04
30.11
38.98
46.70
49.64
45.93
35.96
21.87
6.41
-8.07
-20.20
-29.56
-36.35
-40.92
-43.51
-44.24
-43.38
-41.49
-39.36
-37.59
-35.94
-32.97
-26.52
-14.62
3.32
25.94
50.13
72.38
89.94
101.81
108.26
109.39
104.45
92.26
72.38
46.61
19.54
-2.92
-15.36
-15.30
-4.98
10.23
24.39
33.42
36.29
34.61
30.50
25.95
21.72
16.40
8.07
-4.39
-20.88
-40.12
-60.04
-79.10
-95.20
-105.99
-110.41
-107.57
-96.59
-77.04
-49.49
-12.30
28.80
64.85
94.29
115.43
126.48
126.21
113.89
89.58
55.07
13.06
-31.34
-71.38
-101.76
-118.86
-121.44
-111.28
-92.65
-70.56
-50.77
-37.39
-32.42
-35.26
-44.12
-55.28
-64.84
-73.56
-80.02
-83.22
-82.86
-76.69
-65.57
-51.46
-36.13
-20.73
-5.51
10.74
29.01
50.03
73.88
98.96
122.66
142.01
154.28
157.85
153.25
142.20
127.21
110.77
94.16
77.74
61.44
45.18
29.30
14.89
2.80
-6.61
-13.49
-18.29
-21.04
-21.11
-17.61
-10.23
0.31
11.88
21.69
27.46
28.21
24.54
17.90
9.53
-0.20
-11.66
-25.26
-40.70
-56.57
-70.86
-81.72
-88.21
-90.41
-88.96
-84.54
-77.39
-67.42
-54.52
-38.90
-21.13
-2.04
17.44
36.20
52.82
65.54
72.63
73.03
67.01
56.41
44.14
33.10
25.00
19.92
16.61
13.44
9.34
4.09
-2.15
-9.43
-18.50
-30.56
-46.44
-65.93
-87.51
-108.73
-127.00
-140.18
-146.85
-146.20
-137.94
-122.36
-100.59
-74.60
-46.92
-19.93
4.75
26.65
46.14
63.81
79.91
94.05
105.46
113.43
117.61
117.99
114.65
107.60
96.91
83.20
67.97
53.60
42.71
37.11
36.96
40.68
45.55
48.89
48.99
45.29
37.95
27.24
13.19
-4.18
-24.21
-45.22
-64.68
-79.99
-89.58
-93.41
-92.87
-89.99
-86.38
-82.61
-78.15
-71.98
-63.27
-51.95
-38.73
-24.80
-11.26
1.25
12.71
23.49
34.07
44.87
56.17
68.09
80.44
92.20
101.22
104.36
98.54
82.30
57.13
27.55
-0.32
-21.13
-32.45
-35.50
-34.20
-33.00
-35.00
-41.00
-50.13
-60.99
-72.62
-84.66
-96.72
-107.75
-115.85
-118.76
-114.72
-103.21
-85.08
-62.25
-37.11
-11.94
11.43
31.72
48.25
61.01
70.53
77.67
83.10
86.90
88.50
87.20
82.87
76.58
70.34
66.24
65.21
66.38
67.42
65.80
60.30
51.64
42.05
33.87
28.28
24.79
21.78
17.69
11.96
5.14
-1.67
-7.72
-13.14
-18.71
-25.27
-33.13
-41.87
-50.64
-58.66
-65.49
-70.95
-74.83
-76.65
-75.78
-71.77
-64.77
-55.64
-45.66
-36.00
-27.31
-19.63
-12.74
-6.49
-0.87
4.33
9.81
16.68
25.74
36.49
46.71
52.97
52.20
43.52
29.09
13.39
1.37
-3.85
-2.10
4.09
10.95
15.12
14.74
9.48
0.07
-12.34
-26.46
-40.88
-54.04
-64.40
-70.73
-72.40
-69.40
-62.20
-51.62
-38.67
-24.54
-10.35
3.08
15.63
27.82
40.41
53.72
67.15
79.31
88.75
94.85
98.24
100.32
102.13
103.37
102.27
96.54
84.92
68.14
48.95
30.97
17.12
8.66
4.98
4.21
4.13
2.84
-0.94
-7.72
-17.41
-29.39
-42.76
-56.53
-69.85
-82.06
-92.51
-100.44
-104.93
-105.25
-101.25
-93.59
-83.70
-73.22
-63.30
-54.15
-45.00
-34.67
-22.30
-7.96
7.43
22.61
36.83
50.15
63.06
75.50
86.17
92.47
91.61
82.12
64.96
43.61
22.79
6.60
-2.90
-6.20
-5.71
-4.55
-5.40
-9.87
-18.40
-30.49
-45.09
-60.75
-75.78
-88.44
-97.10
-100.65
-98.63
-91.30
-79.52
-64.40
-47.05
-28.53
-9.79
8.21
24.59
38.73
50.39
59.71
66.91
72.04
74.99
75.88
75.47
75.21
76.62
80.18
84.66
87.28
85.03
76.37
62.39
46.54
33.02
24.82
22.43
23.91
26.23
26.83
24.60
19.75
13.12
5.46
-2.88
-11.67
-20.57
-29.06
-36.72
-43.47
-49.67
-55.83
-62.17
-68.41
-73.85
-77.76
-79.63
-79.30
-76.82
-72.34
-66.09
-58.49
-50.10
-41.25
-31.64
-20.13
-5.34
13.32
34.50
54.80
69.79
76.04
72.93
63.21
51.88
43.95
42.20
46.22
52.97
58.36
59.09
53.52
41.73
24.89
4.59
-17.51
-39.64
-59.84
-76.11
-86.76
-90.95
-89.02
-82.58
-74.13
-66.30
-61.00
-58.48
-57.10
-53.75
-45.07
-28.97
-5.68
22.14
50.40
75.17
93.96
106.11
112.21
113.06
108.97
99.80
85.73
68.03
49.23
32.51
20.49
14.29
13.17
15.02
17.26
17.81
15.62
10.69
3.76
-4.13
-12.06
-19.46
-26.17
-32.31
-38.05
-43.47
-48.41
-52.53
-55.51
-57.28
-58.06
-58.22
-57.88
-56.65
-53.63
-47.88
-38.89
-26.96
-13.09
1.60
16.19
30.02
42.24
51.29
54.98
51.28
39.57
21.65
1.61
-15.42
-25.27
-26.27
-19.76
-9.24
1.16
8.06
9.43
4.61
-6.08
-21.55
-39.91
-58.50
-74.30
-84.68
-88.22
-85.17
-77.22
-66.77
-56.02
-46.30
-37.97
-30.53
-22.99
-14.25
-3.36
10.11
25.88
42.89
59.47
73.74
84.02
89.16
88.85
83.87
76.07
68.13
62.60
60.86
62.30
64.56
64.74
61.04
54.03
46.42
41.57
41.39
45.05
49.21
49.75
44.03
32.16
16.84
1.74
-10.38
-18.83
-24.83
-30.31
-36.54
-43.38
-49.53
-53.45
-54.44
-53.09
-50.99
-49.98
-51.26
-54.86
-59.62
-63.58
-64.56
-60.80
-51.36
-36.28
-16.51
6.23
29.78
51.69
69.49
80.93
84.38
79.34
66.89
49.71
31.57
16.33
6.70
3.47
5.28
9.30
12.20
11.26
5.07
-6.21
-21.13
-37.41
-52.48
-63.99
-70.26
-70.57
-65.34
-56.07
-44.96
-34.43
-26.47
-22.03
-20.71
-20.66
-19.17
-13.53
-2.19
14.48
34.17
53.46
69.16
79.44
84.23
84.63
81.83
76.37
68.05
56.69
42.96
28.77
16.75
9.18
6.92
8.98
13.06
16.58
17.65
15.69
11.22
5.31
-1.18
-7.88
-14.94
-22.65
-31.04
-39.67
-47.73
-54.42
-59.33
-62.69
-65.35
-68.34
-72.30
-76.84
-80.41
-80.63
-75.19
-62.77
-43.62
-19.54
6.75
32.25
54.15
70.08
78.20
77.61
68.99
55.02
40.12
29.22
26.03
31.51
43.42
57.30
68.02
71.48
65.40
49.37
24.34
-7.82
-44.40
-81.84
-115.87
-142.22
-157.66
-160.98
-153.40
-138.03
-118.64
-98.33
-78.72
-59.94
-41.29
-22.13
-2.38
17.43
36.43
53.64
68.09
78.91
85.52
88.21
88.42
88.44
90.30
94.44
98.94
100.09
94.23
79.89
58.99
36.21
16.93
4.83
0.48
1.57
4.53
6.31
5.51
2.26
-2.72
-8.97
-16.74
-26.65
-39.04
-53.49
-68.72
-82.95
-94.47
-102.23
-106.20
-107.34
-107.15
-106.93
-106.88
-105.62
-100.55
-88.92
-69.28
-42.46
-11.40
19.95
48.18
71.28
88.55
99.75
104.41
101.88
92.35
77.77
62.18
50.57
46.92
52.44
64.90
79.52
90.81
94.47
88.49
73.18
50.50
23.30
-5.25
-32.01
-54.16
-69.67
-77.90
-79.85
-77.80
-74.39
-71.55
-69.84
-68.47
-66.02
-61.18
-53.20
-41.97
-27.87
-11.78
4.66
19.22
29.73
35.34
37.42
39.25
44.28
53.83
65.79
75.19
76.83
68.30
51.58
32.23
16.52
8.28
7.20
9.55
10.55
6.88
-1.90
-13.79
-25.78
-35.52
-42.11
-46.11
-48.66
-50.61
-51.96
-52.00
-49.90
-45.33
-39.05
-32.74
-28.34
-27.07
-28.63
-31.00
-31.06
-25.70
-13.10
6.45
30.41
54.58
74.23
85.47
86.34
77.51
62.06
44.59
29.78
20.95
19.19
23.40
31.11
39.60
46.62
50.62
50.28
44.24
31.25
10.96
-15.28
-44.08
-70.83
-91.06
-101.96
-103.16
-96.42
-84.62
-70.57
-56.24
-42.65
-30.18
-18.95
-8.91
0.26
9.23
18.86
29.77
41.90
54.34
65.60
74.18
79.15
80.31
78.17
73.48
66.97
59.25
50.93
42.73
35.43
29.57
25.23
21.99
19.15
16.08
12.39
7.95
2.51
-4.31
-13.05
-23.99
-36.89
-50.88
-64.69
-77.00
-86.64
-92.67
-94.37
-91.18
-82.89
-69.89
-53.30
-34.88
-16.49
0.46
15.41
28.65
40.77
52.17
62.70
71.86
79.19
84.57
88.04
89.30
87.38
80.70
68.05
49.69
28.18
8.03
-5.74
-9.58
-2.86
11.83
29.66
45.32
54.61
55.40
47.56
32.47
12.19
-11.09
-35.31
-58.52
-78.88
-94.58
-104.07
-106.32
-101.25
-90.01
-74.85
-58.68
-44.09
-32.48
-23.52
-15.46
-6.14
5.94
21.03
38.31
56.57
74.66
91.29
104.43
111.04
107.62
91.83
64.22
28.88
-7.57
-38.38
-59.17
-69.23
-71.10
-68.79
-65.84
-64.19
-64.17
-65.22
-66.58
-67.51
-67.25
-64.94
-59.83
-51.84
-42.03
-32.69
-26.67
-26.44
-32.99
-45.28
-60.32
-74.06
-82.68
-83.85
-77.45
-65.54
-51.64
-39.54
-32.12
-30.50
-33.60
-38.23
-39.90
-34.12
-18.16
7.47
38.46
67.65
87.36
92.39
82.17
61.21
37.29
18.54
10.46
14.35
27.53
44.80
60.44
69.78
70.03
60.42
42.09
17.61
-9.51
-35.54
-57.17
-72.12
-79.39
-79.30
-73.18
-62.96
-50.67
-38.04
-26.26
-15.85
-6.75
1.48
9.51
18.02
27.56
38.43
50.52
63.09
74.85
84.26
90.17
92.41
91.88
90.05
88.18
86.46
83.97
79.32
71.75
62.06
52.61
46.30
45.20
49.50
57.49
66.48
74.05
78.90
80.61
78.83
72.71
61.31
44.79
25.46
7.47
-4.96
-9.72
-8.29
-5.51
-7.47
-18.45
-38.74
-64.42
-89.72
-109.94
-123.23
-130.47
-133.77
-134.42
-131.74
-123.44
-107.16
-82.52
-52.14
-20.52
7.80
29.78
44.15
50.12
46.16
32.50
12.47
-8.98
-27.41
-40.11
-46.44
-47.66
-46.01
-43.40
-40.50
-37.19
-33.51
-29.80
-26.64
-24.40
-23.00
-22.25
-22.29
-23.65
-26.92
-31.80
-35.84
-34.61
-23.51
-0.19
33.89
73.77
112.66
143.82
161.96
164.06
149.56
120.57
81.87
40.28
3.31
-23.20
-37.11
-40.38
-37.78
-34.53
-34.15
-37.59
-44.06
-50.93
-55.36
-54.92
-47.98
-34.61
-17.00
0.95
15.23
23.06
24.11
20.19
13.89
7.52
2.16
-2.33
-6.52
-10.81
-15.22
-19.61
-24.06
-29.06
-34.90
-41.48
-48.10
-53.33
-55.26
-52.02
-42.30
-25.40
-4.08
17.92
36.80
49.66
55.72
56.57
55.34
55.43
59.14
67.16
77.48
87.12
92.65
91.09
80.88
62.80
40.05
17.58
-0.08
-9.69
-10.71
-5.59
1.37
5.71
4.49
-3.00
-15.37
-30.82
-47.25
-63.13
-77.77
-91.03
-102.89
-113.33
-122.70
-127.73
-128.13
-124.72
-118.80
-111.65
-103.75
-94.55
-82.74
-67.03
-46.97
-24.16
-1.33
18.28
31.84
38.06
37.83
34.25
31.86
35.41
47.93
70.30
100.75
135.25
168.63
195.76
212.69
217.17
208.81
188.57
158.88
123.21
85.49
49.48
18.01
-7.50
-27.01
-41.36
-51.64
-58.38
-61.55
-60.96
-57.05
-51.26
-45.83
-43.11
-44.67
-50.80
-60.37
-71.26
-81.11
-88.05
-91.15
-90.50
-86.77
-80.57
-71.85
-59.82
-43.50
-22.54
2.17
28.63
54.46
77.77
97.44
112.72
122.53
125.14
118.81
103.03
79.60
52.50
26.56
5.62
-8.73
-16.92
-20.31
-19.87
-15.81
-8.26
1.60
10.97
16.04
13.48
2.03
-16.85
-39.58
-61.97
-80.79
-94.58
-103.44
-108.13
-109.08
-105.89
-97.45
-82.50
-60.42
-31.71
1.67
36.64
69.74
97.99
119.59
134.08
142.09
144.79
143.29
138.23
129.55
116.55
98.28
74.08
44.33
10.87
-22.84
-52.36
-73.42
-83.25
-81.49
-70.17
-52.93
-33.76
-16.04
-2.29
5.71
6.81
0.74
-11.55
-27.80
-44.92
-60.19
-72.37
-82.27
-92.21
-104.67
-120.81
-139.87
-159.54
-176.94
-189.62
-196.00
-195.12
-186.27
-168.72
-141.66
-104.49
-57.22
-1.35
59.47
119.20
170.36
206.28
223.50
223.37
211.70
196.20
183.13
174.79
169.15
161.55
147.44
124.38
92.71
54.75
13.72
-27.13
-64.88
-96.93
-121.25
-136.58
-142.61
-140.07
-130.65
-116.88
-101.84
-88.61
-79.38
-74.43
-71.68
-67.38
-57.62
-40.08
-15.11
14.71
45.82
75.16
100.88
122.00
137.62
146.50
147.40
140.02
125.76
107.51
88.59
71.37
56.46
42.88
29.06
13.94
-2.48
-19.17
-34.63
-47.54
-57.20
-63.61
-67.28
-68.89
-69.03
-68.08
-66.25
-63.84
-61.43
-59.95
-60.47
-63.76
-69.88
-78.14
-87.33
-96.31
-104.52
-112.18
-120.05
-128.87
-138.70
-148.52
-156.09
-158.38
-152.31
-135.82
-108.80
-73.36
-33.35
6.92
44.24
77.54
107.87
137.34
167.49
198.08
226.88
250.38
265.24
269.20
261.38
241.69
210.19
167.04
113.12
51.17
-13.55
-73.89
-122.53
-154.30
-167.73
-165.21
-151.58
-132.13
-110.78
-89.34
-68.04
-46.45
-24.43
-2.42
18.78
38.37
55.59
69.46
78.56
81.40
77.17
66.71
52.60
38.43
27.27
20.38
16.86
14.43
11.07
6.38
1.87
0.05
3.04
11.50
24.51
40.29
56.97
73.03
87.12
97.63
102.67
100.53
90.41
73.08
50.83
26.72
3.45
-17.61
-36.77
-55.64
-76.14
-99.60
-126.10
-154.27
-181.64
-205.06
-221.24
-227.17
-220.58
-200.34
-166.86
-122.15
-69.77
-14.43
38.44
83.24
114.93
129.97
127.38
109.53
82.18
53.44
31.73
23.37
30.61
51.13
78.90
106.14
125.68
132.68
125.65
106.32
78.70
47.71
17.83
-7.88
-27.97
-42.36
-51.82
-57.50
-60.50
-61.69
-61.40
-59.25
-54.28
-45.25
-31.27
-12.42
9.91
33.11
53.71
68.12
73.15
66.88
49.56
24.28
-3.06
-25.32
-36.63
-35.07
-23.54
-8.45
3.42
8.37
7.45
5.68
9.18
21.97
44.05
71.63
99.14
121.54
135.85
141.19
137.75
125.73
105.04
75.79
39.30
-1.36
-41.79
-77.59
-105.90
-126.33
-140.68
-151.67
-161.39
-170.44
-177.96
-182.45
-182.71
-178.37
-169.87
-157.96
-143.12
-125.00
-102.38
-73.64
-37.72
4.59
49.87
92.35
125.42
144.10
147.28
138.70
125.77
116.87
117.88
129.95
149.09
168.03
179.04
176.72
159.35
128.68
88.50
42.98
-4.38
-50.97
-94.53
-132.59
-162.45
-181.55
-188.34
-182.87
-167.05
-144.29
-118.58
-93.38
-70.45
-49.43
-28.14
-3.97
24.57
56.77
89.81
120.01
144.34
161.23
170.40
171.85
164.84
147.96
120.21
82.57
38.85
-4.72
-41.24
-65.15
-73.78
-67.82
-50.65
-27.15
-2.47
19.13
34.85
43.62
45.91
43.13
36.83
28.07
16.90
2.52
-16.19
-39.73
-67.35
-96.89
-125.25
-149.26
-166.52
-176.00
-178.12
-174.43
-167.22
-158.85
-151.08
-144.25
-136.66
-124.65
-103.82
-71.16
-27.28
22.71
70.33
106.81
126.75
130.42
123.54
114.79
112.05
119.44
136.31
158.24
179.23
193.78
197.93
189.44
167.57
133.01
88.20
37.69
-12.38
-55.47
-86.46
-103.30
-107.53
-103.46
-96.23
-89.80
-85.44
-81.77
-75.85
-64.85
-47.47
-24.43
1.80
27.80
49.89
64.79
70.28
65.92
53.55
37.09
20.98
7.99
-2.38
-13.66
-29.85
-52.02
-75.85
-92.43
-92.04
-69.15
-25.86
28.56
81.49
122.30
146.10
154.33
152.26
145.33
136.42
125.30
110.00
88.94
62.46
33.03
4.18
-21.09
-41.50
-57.73
-71.58
-84.80
-98.06
-110.71
-121.27
-128.22
-130.48
-127.17
-117.21
-99.32
-72.70
-38.22
0.69
38.49
69.38
89.73
99.83
103.66
106.84
113.69
125.03
137.97
147.41
148.49
138.43
117.07
86.08
47.88
4.74
-41.21
-87.57
-131.27
-168.75
-196.58
-212.44
-215.70
-207.54
-190.50
-167.70
-142.14
-116.21
-91.39
-68.29
-46.79
-26.40
-6.77
11.94
28.97
43.52
55.65
66.88
79.96
97.35
119.18
141.80
158.12
160.10
142.30
104.79
53.68
-0.93
-48.74
-82.50
-99.61
-101.49
-91.65
-73.96
-51.68
-27.55
-4.14
15.99
30.67
38.60
39.73
35.19
26.87
16.85
6.84
-2.35
-11.14
-21.08
-34.19
-51.94
-74.22
-98.88
-122.17
-139.83
-148.19
-145.04
-129.94
-104.21
-70.92
-34.63
-0.85
25.21
40.27
44.35
41.16
36.99
38.51
50.42
73.93
106.64
143.46
178.10
204.33
217.16
213.47
192.76
157.43
112.47
64.47
20.07
-15.61
-40.10
-53.47
-57.69
-55.36
-48.80
-39.67
-28.96
-17.11
-3.95
11.42
30.48
54.55
83.65
115.50
145.35
167.01
174.56
164.15
134.99
89.42
32.26
-30.05
-90.20
-140.98
-176.41
-193.02
-190.98
-173.94
-147.91
-119.20
-92.56
-70.29
-52.77
-39.71
-31.38
-29.05
-34.33
-48.06
-69.43
-95.83
-123.68
-149.55
-171.33
-188.55
-201.92
-212.27
-219.52
-222.12
-217.43
-202.61
-175.62
-135.88
-84.42
-23.94
41.09
104.35
158.31
195.80
212.43
208.95
191.90
171.91
159.93
162.76
180.27
205.55
227.91
237.37
228.32
200.99
160.43
113.81
67.66
26.03
-9.70
-39.79
-64.56
-83.37
-94.48
-96.05
-87.54
-70.56
-48.60
-25.80
-5.24
12.09
26.89
40.27
52.46
62.56
69.23
71.84
70.72
66.32
57.83
42.67
17.84
-17.44
-59.61
-100.59
-130.51
-141.82
-132.62
-107.19
-73.67
-40.23
-12.07
9.24
24.33
33.97
37.78
34.56
23.64
6.03
-15.46
-37.47
-57.69
-75.72
-92.74
-110.16
-127.93
-143.77
-153.55
-152.72
-138.17
-109.59
-69.95
-24.81
19.04
55.25
79.44
90.21
89.49
82.04
73.97
70.74
75.39
87.58
104.24
121.06
134.29
141.81
142.92
137.49
125.19
105.49
78.46
45.63
10.30
-23.24
-51.11
-71.18
-83.45
-89.48
-91.17
-89.61
-84.66
-75.34
-60.81
-41.24
-18.29
5.36
26.94
44.59
57.95
67.86
75.73
82.81
89.77
96.58
102.47
105.75
103.84
93.81
73.67
43.97
8.65
-25.55
-51.26
-63.44
-61.39
-48.99
-32.77
-19.07
-11.62
-10.85
-14.82
-21.01
-27.87
-35.30
-43.93
-54.10
-65.04
-75.03
-82.36
-86.53
-88.70
-91.33
-96.85
-106.20
-118.06
-129.19
-135.72
-134.66
-124.89
-107.31
-84.11
-57.92
-31.25
-6.38
14.70
30.53
40.81
46.99
52.20
60.30
74.24
94.56
118.90
142.77
161.24
170.70
169.83
159.44
141.58
118.32
91.16
60.99
28.74
-4.02
-34.83
-60.58
-78.32
-86.16
-83.93
-73.15
-56.47
-36.66
-15.74
5.29
26.23
46.96
66.92
85.11
100.39
111.87
119.10
121.73
119.12
110.19
93.91
70.11
40.24
7.50
-23.89
-49.93
-68.15
-78.19
-81.66
-81.30
-79.84
-79.08
-79.41
-79.85
-78.72
-74.59
-67.15
-57.76
-49.23
-45.04
-48.02
-59.38
-78.23
-101.89
-126.82
-149.60
-167.59
-179.23
-183.92
-181.75
-173.18
-158.77
-138.78
-112.87
-80.05
-39.29
9.31
63.29
117.29
164.03
196.59
211.37
209.94
198.80
186.84
181.49
185.50
195.93
205.78
207.23
194.78
166.85
125.44
74.58
18.65
-38.34
-92.71
-140.69
-178.30
-202.02
-209.78
-201.82
-180.75
-150.82
-116.60
-81.63
-47.82
-15.57
15.25
44.31
70.28
91.23
105.66
113.51
116.31
116.26
114.77
111.28
103.38
88.12
63.97
32.20
-3.12
-36.30
-62.05
-77.08
-80.78
-74.78
-62.02
-45.69
-28.64
-13.18
-1.29
5.20
4.68
-3.93
-20.73
-44.39
-72.18
-100.49
-125.84
-145.95
-160.34
-170.15
-177.16
-182.59
-186.33
-186.80
-181.58
-168.21
-144.94
-111.25
-68.18
-18.72
32.19
78.19
113.01
132.52
136.57
129.54
119.05
113.28
117.95
134.38
159.36
186.63
209.12
221.04
219.04
202.43
172.71
132.92
86.96
39.00
-6.96
-47.46
-79.92
-102.73
-115.30
-117.96
-111.79
-98.43
-79.95
-58.63
-36.67
-15.97
2.16
16.98
28.15
35.52
39.16
39.60
38.18
36.95
38.00
42.40
49.18
55.33
57.00
51.38
38.53
21.69
6.15
-3.13
-3.61
3.88
15.91
28.19
37.37
41.99
42.24
39.02
33.08
24.57
13.23
-1.11
-18.21
-37.33
-57.50
-77.70
-96.98
-114.36
-128.77
-139.04
-144.20
-143.72
-137.76
-127.15
-113.08
-96.60
-78.07
-56.76
-31.12
0.39
37.87
78.59
116.61
143.89
153.00
140.32
108.31
65.40
23.42
-6.57
-18.11
-11.12
8.97
33.89
55.74
69.03
71.20
62.06
42.91
16.10
-14.87
-45.27
-69.66
-83.06
-82.65
-68.84
-45.41
-18.25
6.60
24.95
35.59
40.17
42.03
44.73
50.78
60.98
74.40
88.83
101.43
109.52
111.27
106.12
94.71
78.36
58.54
36.58
13.89
-7.58
-25.15
-35.97
-38.04
-31.25
-17.75
-1.18
14.58
26.57
33.09
33.21
26.14
10.96
-12.86
-44.62
-81.79
-120.33
-155.80
-184.77
-205.86
-219.78
-228.60
-234.33
-237.84
-238.27
-233.33
-220.18
-196.48
-160.87
-113.02
-53.76
14.36
86.16
153.51
206.68
237.40
242.58
226.25
198.53
171.36
153.28
145.91
144.20
140.07
127.33
104.80
76.37
48.11
24.69
7.25
-6.42
-19.72
-34.88
-51.49
-66.51
-75.67
-75.35
-64.04
