1635351188.00
64.000000
-0.00
-0.00
-0.00
-0.00
-0.00
-0.00
-0.00
-0.00
-0.00
-0.00
0.00
0.01
0.01
-0.00
-0.03
-0.05
-0.05
0.00
0.13
0.36
0.66
1.01
1.37
1.72
2.06
2.40
2.79
3.24
3.80
4.42
5.06
5.66
6.20
6.68
7.15
7.68
8.31
9.14
10.09
11.04
11.88
12.56
13.14
13.76
14.65
15.96
17.91
20.32
22.90
25.38
27.58
29.57
31.68
34.32
37.81
42.54
48.15
54.11
59.84
64.97
69.58
74.14
79.34
85.71
93.78
103.04
112.67
121.76
129.72
136.59
142.99
150.29
157.21
166.01
177.30
191.15
206.32
219.86
227.44
224.43
207.47
175.73
131.61
78.93
21.99
-36.06
-93.70
-150.68
-207.10
-262.56
-316.13
-366.30
-412.18
-453.18
-488.88
-518.54
-540.77
-553.71
-555.36
-544.39
-520.45
-484.82
-439.89
-388.66
-334.04
-278.33
-223.00
-168.85
-116.45
-66.40
-19.83
21.91
57.55
86.33
108.29
124.32
135.80
144.11
150.24
154.49
156.68
156.40
153.27
147.10
137.95
126.30
113.37
101.26
92.74
90.43
95.64
107.51
123.05
138.13
149.03
153.80
152.54
146.82
138.54
129.02
118.76
107.87
96.58
85.54
75.56
67.36
60.82
55.33
50.10
44.53
38.49
32.29
26.43
21.41
17.48
14.57
12.39
10.52
8.62
6.55
4.43
2.55
1.23
0.65
0.74
1.24
1.81
2.14
2.04
1.48
0.52
-0.71
-2.05
-3.40
-4.67
-5.77
-6.52
-6.68
-5.99
-4.37
-2.08
0.31
2.08
2.72
2.15
0.71
-1.08
-2.77
-4.16
-5.28
-6.14
-6.69
-6.81
-6.44
-5.75
-5.05
-4.69
-4.86
-5.47
-6.28
-6.90
-7.05
-6.54
-5.34
-3.53
-1.34
0.90
2.78
3.97
4.30
3.87
2.99
2.04
1.34
1.00
0.95
1.03
1.11
1.19
1.38
1.81
2.54
3.45
4.32
4.89
5.09
4.98
4.80
4.79
5.07
5.57
6.15
6.59
6.78
6.68
6.28
5.59
4.61
3.21
1.33
-0.96
-3.48
-5.90
-7.86
-9.00
-9.11
-8.19
-6.53
-4.58
-2.88
-1.87
-1.72
-2.31
-3.31
-4.31
-5.02
-5.37
-5.42
-5.34
-5.32
-5.46
-5.72
-5.96
-5.91
-5.34
-4.08
-2.21
-0.04
1.93
3.17
3.32
2.31
0.43
-1.85
-4.02
-5.73
-6.84
-7.39
-7.50
-7.29
-6.78
-5.98
-4.92
-3.72
-2.54
-1.50
-0.62
0.19
1.03
1.94
2.76
3.25
3.13
2.31
0.90
-0.72
-2.13
-2.95
-2.97
-2.20
-0.84
0.87
2.50
3.62
3.87
3.12
1.50
-0.60
-2.69
-4.30
-5.15
-5.28
-4.95
-4.49
-4.20
-4.23
-4.53
-4.94
-5.24
-5.28
-5.04
-4.60
-4.17
-4.01
-4.34
-5.30
-6.80
-8.53
-9.96
-10.49
-9.58
-6.92
-2.60
2.82
8.46
13.36
16.73
18.20
17.92
16.34
14.07
11.61
9.26
7.16
5.40
4.07
3.22
2.85
2.81
2.90
2.89
2.66
2.19
1.56
0.84
0.02
-0.90
-1.95
-3.09
-4.16
-4.91
-5.14
-4.71
-3.69
-2.30
-0.88
0.20
0.65
0.35
-0.63
-2.05
-3.63
-5.11
-6.33
-7.25
-7.87
-8.20
-8.22
-7.92
-7.31
-6.44
-5.43
-4.38
-3.37
-2.45
-1.66
-1.03
-0.62
-0.42
-0.33
-0.12
0.46
1.60
3.31
5.35
7.26
8.57
8.91
8.19
6.58
4.45
2.20
0.08
-1.81
-3.45
-4.87
-6.02
-6.85
-7.36
-7.65
-7.88
-8.21
-8.64
-9.00
-9.05
-8.56
-7.51
-6.11
-4.72
-3.68
-3.12
-2.86
-2.42
-1.19
1.39
5.53
10.98
17.03
22.67
26.99
29.39
29.81
28.68
26.65
24.29
21.94
19.64
17.28
14.78
12.16
9.57
7.15
4.99
3.08
1.39
-0.02
-1.05
-1.61
-1.75
-1.73
-1.96
-2.79
-4.31
-6.25
-7.99
-8.87
-8.44
-6.68
-4.08
-1.37
0.72
1.80
1.90
1.32
0.51
-0.27
-0.92
-1.55
-2.31
-3.28
-4.38
-5.39
-6.07
-6.22
-5.81
-4.98
-3.95
-2.99
-2.27
-1.91
-1.92
-2.24
-2.79
-3.45
-4.06
-4.43
-4.35
-3.71
-2.58
-1.18
0.11
0.96
1.16
0.79
0.08
-0.64
-1.14
-1.37
-1.43
-1.54
-1.83
-2.29
-2.79
-3.12
-3.11
-2.66
-1.82
-0.71
0.47
1.49
2.19
2.46
2.28
1.74
0.98
0.17
-0.49
-0.83
-0.64
0.22
1.79
3.92
6.30
8.50
10.13
10.99
11.13
10.79
10.20
9.46
8.45
6.97
4.86
2.12
-1.00
-4.13
-6.87
-8.96
-10.30
-10.91
-10.95
-10.57
-9.94
-9.19
-8.40
-7.67
-7.00
-6.40
-5.83
-5.22
-4.51
-3.63
-2.59
-1.44
-0.35
0.48
0.85
0.62
-0.19
-1.43
-2.86
-4.16
-5.09
-5.52
-5.49
-5.20
-4.92
-4.93
-5.38
-6.30
-7.51
-8.73
-9.66
-10.02
-9.69
-8.66
-7.08
-5.19
-3.28
-1.64
-0.43
0.36
0.94
1.65
2.82
4.60
6.88
9.34
11.55
13.16
13.97
13.97
13.31
12.22
10.93
9.59
8.29
7.03
5.82
4.67
3.67
2.90
2.42
2.19
2.07
1.89
1.50
0.87
0.03
-0.98
-2.13
-3.47
-4.95
-6.42
-7.59
-8.19
-8.06
-7.26
-6.05
-4.76
-3.64
-2.74
-1.97
-1.16
-0.15
1.08
2.48
3.90
5.23
6.34
7.20
7.79
8.11
8.17
7.95
7.45
6.70
5.77
4.79
3.92
3.29
2.90
2.66
2.35
1.79
0.85
-0.46
-2.00
-3.56
-4.97
-6.14
-7.06
-7.75
-8.22
-8.43
-8.34
-7.93
-7.25
-6.38
-5.43
-4.47
-3.51
-2.55
-1.57
-0.58
0.44
1.48
2.49
3.44
4.22
4.74
4.98
4.96
4.74
4.38
3.92
3.31
2.57
1.73
0.95
0.38
0.14
0.16
0.25
0.09
-0.55
-1.81
-3.61
-5.73
-7.88
-9.83
-11.42
-12.60
-13.38
-13.74
-13.62
-12.97
-11.75
-10.01
-7.89
-5.56
-3.20
-0.92
1.17
3.00
4.45
5.44
5.93
6.00
5.88
5.89
6.25
7.10
8.32
9.67
10.85
11.61
11.78
11.29
10.12
8.36
6.15
3.78
1.56
-0.19
-1.30
-1.77
-1.78
-1.61
-1.54
-1.75
-2.31
-3.16
-4.16
-5.12
-5.82
-6.04
-5.65
-4.62
-3.06
-1.26
0.44
1.70
2.34
2.40
2.14
1.96
2.18
2.95
4.10
5.24
5.90
5.65
4.26
1.78
-1.48
-5.07
-8.44
-11.16
-13.03
-14.11
-14.75
-15.41
-16.47
-18.01
-19.80
-21.38
-22.25
-22.09
-20.88
-18.85
-16.38
-13.88
-11.72
-10.11
-9.15
-8.70
-8.47
-8.06
-7.07
-5.30
-2.82
-0.00
2.67
4.71
5.83
5.96
5.27
4.02
2.53
1.11
-0.02
-0.75
-1.07
-1.11
-1.07
-1.13
-1.37
-1.73
-2.06
-2.22
-2.19
-2.07
-2.01
-2.06
-2.13
-1.94
-1.18
0.41
2.85
5.95
9.32
12.54
15.25
17.25
18.49
19.08
19.15
18.84
18.18
17.15
15.66
13.70
11.34
8.77
6.28
4.13
2.46
1.24
0.25
-0.77
-2.05
-3.64
-5.43
-7.18
-8.64
-9.66
-10.16
-10.16
-9.63
-8.53
-6.78
-4.41
-1.57
1.42
4.20
6.49
8.20
9.41
10.35
11.25
12.19
13.13
13.87
14.19
13.89
12.92
11.32
9.30
7.06
4.80
2.68
0.73
-1.08
-2.82
-4.54
-6.24
-7.82
-9.12
-9.92
-10.08
-9.50
-8.21
-6.33
-4.05
-1.60
0.72
2.62
3.80
4.03
3.28
1.75
-0.14
-1.84
-2.85
-2.94
-2.18
-0.92
0.40
1.41
1.98
2.19
2.25
2.32
2.46
2.56
2.47
2.08
1.36
0.42
-0.62
-1.61
-2.50
-3.29
-4.04
-4.86
-5.87
-7.12
-8.61
-10.24
-11.87
-13.32
-14.47
-15.30
-15.84
-16.17
-16.30
-16.20
-15.72
-14.71
-13.04
-10.67
-7.69
-4.26
-0.60
3.04
6.44
9.34
11.49
12.69
12.81
11.97
10.50
8.91
7.79
7.57
8.37
9.98
11.87
13.41
14.05
13.49
11.74
9.10
6.05
3.16
0.91
-0.41
-0.77
-0.35
0.50
1.43
2.17
2.64
2.85
2.97
3.12
3.43
3.95
4.61
5.35
6.08
6.77
7.52
8.53
10.02
12.10
14.64
17.25
19.41
20.65
20.72
19.66
17.72
15.15
12.14
8.77
5.11
1.31
-2.32
-5.43
-7.76
-9.26
-10.15
-10.72
-11.28
-11.93
-12.59
-13.08
-13.22
-12.93
-12.28
-11.36
-10.28
-9.02
-7.54
-5.77
-3.71
-1.44
0.86
2.98
4.67
5.73
6.00
5.42
4.09
2.25
0.27
-1.49
-2.77
-3.46
-3.64
-3.47
-3.17
-2.89
-2.72
-2.69
-2.78
-2.95
-3.15
-3.33
-3.46
-3.51
-3.45
-3.26
-2.84
-2.08
-0.80
1.11
3.63
6.58
9.64
12.38
14.45
15.62
15.91
15.51
14.67
13.63
12.51
11.28
9.80
8.00
5.90
3.70
1.69
0.11
-0.94
-1.60
-2.13
-2.83
-3.88
-5.32
-7.05
-8.89
-10.65
-12.09
-13.03
-13.28
-12.79
-11.62
-10.00
-8.28
-6.72
-5.53
-4.71
-4.16
-3.69
-3.14
-2.39
-1.41
-0.21
1.17
2.63
4.08
5.35
6.28
6.75
6.73
6.33
5.68
4.95
4.20
3.42
2.55
1.59
0.67
-0.02
-0.34
-0.33
-0.19
-0.18
-0.47
-1.05
-1.78
-2.50
-3.15
-3.81
-4.60
-5.56
-6.57
-7.37
-7.69
-7.38
-6.51
-5.26
-3.88
-2.50
-1.17
0.19
1.61
3.04
4.31
5.18
5.44
5.01
4.00
2.71
1.49
0.68
0.42
0.65
1.15
1.58
1.65
1.15
0.05
-1.49
-3.20
-4.79
-5.98
-6.68
-6.90
-6.78
-6.51
-6.20
-5.91
-5.64
-5.36
-5.10
-4.87
-4.65
-4.35
-3.85
-3.04
-1.90
-0.51
1.02
2.62
4.31
6.10
7.95
9.71
11.11
11.88
11.89
11.17
9.95
8.53
7.14
5.90
4.77
3.67
2.53
1.37
0.34
-0.40
-0.69
-0.44
0.34
1.61
3.23
5.05
6.89
8.52
9.78
10.56
10.92
11.01
11.04
11.19
11.47
11.70
11.54
10.66
8.81
6.01
2.54
-1.12
-4.46
-7.08
-8.78
-9.56
-9.53
-8.83
-7.56
-5.81
-3.70
-1.36
0.99
3.14
4.86
5.93
6.12
5.25
3.29
0.35
-3.18
-6.80
-9.92
-12.12
-13.23
-13.38
-12.97
-12.51
-12.46
-13.11
-14.51
-16.49
-18.74
-20.94
-22.85
-24.33
-25.39
-26.04
-26.32
-26.18
-25.55
-24.36
-22.64
-20.49
-18.13
-15.88
-14.00
-12.67
-11.90
-11.49
-11.13
-10.46
-9.18
-7.17
-4.56
-1.62
1.26
3.76
5.66
6.97
7.78
8.17
8.17
7.73
6.82
5.49
3.92
2.33
0.91
-0.27
-1.23
-2.01
-2.58
-2.88
-2.85
-2.50
-2.01
-1.65
-1.63
-2.06
-2.80
-3.56
-3.98
-3.80
-2.91
-1.41
0.47
2.38
3.97
4.97
5.28
4.98
4.30
3.53
2.86
2.33
1.84
1.19
0.25
-0.91
-2.10
-3.01
-3.37
-3.04
-2.08
-0.65
0.95
2.44
3.58
4.33
4.85
5.48
6.63
8.59
11.39
14.73
18.07
20.82
22.57
23.15
22.75
21.70
20.33
18.84
17.22
15.33
13.05
10.35
7.39
4.45
1.86
-0.17
-1.61
-2.60
-3.43
-4.37
-5.60
-7.16
-8.87
-10.40
-11.28
-11.06
-9.39
-6.19
-1.74
3.40
8.51
12.91
16.18
18.18
19.06
19.07
18.39
17.13
15.30
12.97
10.33
7.69
5.42
3.80
2.95
2.79
3.11
3.66
4.16
4.38
4.12
3.26
1.82
-0.02
-1.85
-3.14
-3.40
-2.34
-0.01
3.17
6.55
9.44
11.30
11.89
11.32
9.89
8.01
6.02
4.13
2.41
0.88
-0.43
-1.48
-2.19
-2.53
-2.52
-2.27
-1.91
-1.58
-1.40
-1.40
-1.51
-1.55
-1.31
-0.64
0.45
1.85
3.28
4.41
4.95
4.77
3.88
2.45
0.74
-0.93
-2.20
-2.77
-2.49
-1.44
0.16
1.99
3.70
5.01
5.74
5.79
5.21
3.96
2.15
0.11
-1.57
-2.33
-1.88
-0.35
1.78
3.85
5.04
4.84
3.36
1.38
-0.20
-0.72
-0.12
1.23
2.69
3.20
2.03
-0.73
-4.02
-6.56
-7.60
-7.17
-5.97
-5.04
-5.95
-10.03
-17.89
-29.18
-42.96
-57.87
-71.85
-82.28
-83.24
-71.10
-48.20
-22.59
-2.56
8.15
10.91
9.85
9.11
10.38
12.62
13.76
12.60
9.63
6.52
4.70
4.55
5.45
6.28
5.61
2.66
-2.17
-7.38
-11.34
-13.16
-12.97
-11.69
-10.50
-10.66
-12.85
-16.81
-21.42
-25.23
-27.09
-26.54
-23.81
-19.62
-15.01
-10.80
-7.37
-4.57
-2.01
0.52
2.94
4.97
6.39
7.14
7.50
7.93
8.90
10.67
13.15
16.01
18.88
21.46
23.62
25.32
26.53
27.18
27.14
26.33
24.75
22.65
20.48
18.85
18.32
19.19
21.38
24.41
27.58
30.23
31.96
32.64
32.38
31.33
29.60
27.20
24.14
20.47
16.39
12.19
8.17
4.64
1.88
0.16
-0.25
0.87
3.57
7.63
12.54
17.47
21.41
23.36
22.56
18.59
11.54
1.96
-9.26
-21.13
-32.73
-43.48
-53.15
-61.81
-69.69
-76.99
-83.86
-90.39
-96.60
-102.45
-107.72
-111.97
-114.46
-114.28
-110.67
-103.30
-92.53
-79.44
-65.61
-52.68
-41.97
-34.04
-28.65
-24.86
-21.38
-17.02
-11.02
-3.26
5.81
15.42
24.76
33.26
40.65
46.86
51.85
55.56
57.85
58.60
57.86
55.91
53.12
49.89
46.46
42.91
39.27
35.59
32.02
28.78
25.96
23.52
21.30
19.20
17.40
16.40
16.87
19.37
24.12
30.87
39.01
47.73
56.17
63.54
69.18
72.62
73.69
72.63
70.03
66.62
62.99
59.41
55.78
51.81
47.29
42.26
37.00
31.87
27.09
22.64
18.33
13.90
9.24
4.46
-0.13
-4.17
-7.44
-10.05
-12.46
-15.42
-19.77
-26.11
-34.51
-44.35
-54.39
-63.06
-68.96
-71.27
-70.01
-65.95
-60.20
-53.84
-47.50
-41.42
-35.54
-29.85
-24.54
-19.89
-16.14
-13.27
-11.04
-9.08
-7.20
-5.39
-3.81
-2.54
-1.43
-0.09
1.88
4.71
8.31
12.33
16.25
19.69
22.44
24.49
25.97
26.96
27.51
27.57
27.05
25.85
23.92
21.26
17.93
14.05
9.78
5.30
0.77
-3.67
-7.89
-11.73
-14.97
-17.27
-18.28
-17.66
-15.27
-11.26
-6.10
-0.42
5.13
10.06
14.19
17.51
20.10
21.99
23.11
23.35
22.68
21.19
19.10
16.69
14.15
11.66
9.33
7.33
5.84
5.04
4.99
5.52
6.25
6.69
6.41
5.28
3.50
1.58
0.12
-0.35
0.45
2.46
5.32
8.51
11.48
13.74
15.07
15.53
15.36
14.91
14.45
14.03
13.49
12.52
10.92
8.69
6.08
3.45
1.12
-0.78
-2.35
-3.80
-5.32
-7.00
-8.73
-10.32
-11.48
-11.98
-11.65
-10.44
-8.42
-5.78
-2.80
0.20
2.85
4.79
5.62
4.94
2.54
-1.55
-6.96
-13.00
-18.89
-23.98
-27.93
-30.69
-32.39
-33.13
-32.95
-31.86
-29.98
-27.67
-25.46
-23.90
-23.36
-23.77
-24.69
-25.40
-25.13
-23.44
-20.25
-15.97
-11.29
-6.99
-3.66
-1.62
-0.93
-1.50
-3.19
-5.77
-8.89
-12.01
-14.52
-15.90
-15.88
-14.54
-12.24
-9.38
-6.20
-2.82
0.71
4.29
7.59
10.20
11.75
12.15
11.66
10.81
10.27
10.56
12.01
14.61
18.14
22.18
26.34
30.31
33.95
37.22
40.14
42.62
44.44
45.31
45.00
43.43
40.86
37.85
35.06
33.12
32.37
32.79
33.94
35.16
35.72
35.19
33.55
31.09
28.37
26.02
24.57
24.35
25.40
27.35
29.69
31.77
32.79
32.19
29.79
25.86
20.95
15.54
9.60
2.89
-5.04
-14.66
-26.05
-38.76
-51.93
-64.44
-75.10
-83.01
-87.05
-86.33
-81.67
-74.55
-67.13
-61.43
-58.25
-55.33
-52.13
-48.72
-45.48
-42.73
-41.61
-41.95
-42.82
-43.06
-41.83
-39.42
-36.63
-34.55
-34.13
-35.71
-38.81
-42.41
-45.30
-46.20
-44.33
-39.08
-30.35
-18.70
-5.36
8.04
19.83
28.71
34.37
37.28
38.60
39.58
41.25
43.88
46.98
49.58
50.51
49.39
46.48
42.50
38.34
35.18
33.73
33.91
34.78
34.62
32.56
28.47
22.86
16.91
12.90
12.96
18.17
28.04
40.24
52.83
63.95
71.83
75.28
75.12
73.26
71.95
72.93
76.30
82.41
90.59
98.83
97.95
81.48
49.14
7.89
-27.99
-55.56
-75.49
-89.58
-100.19
-108.60
-114.72
-118.25
-119.39
-119.13
-119.48
-120.70
-122.14
-122.89
-121.88
-117.52
-108.80
-95.90
-80.42
-65.35
-52.38
-42.12
-34.25
-27.34
-19.13
-7.89
6.77
23.58
39.74
53.20
62.66
67.64
68.99
68.18
66.45
64.25
61.33
56.81
50.71
43.36
35.12
27.01
19.93
14.20
9.68
6.21
3.59
2.84
4.98
10.58
20.77
35.99
55.58
77.62
99.53
118.31
132.65
142.16
140.47
124.18
94.47
57.01
18.60
-12.59
-37.29
-56.89
-72.38
-84.64
-93.63
-99.17
-101.68
-101.95
-100.65
-98.42
-94.74
-89.40
-82.94
-75.68
-68.21
-61.28
-55.62
-51.50
-49.03
-47.21
-45.05
-41.96
-37.20
-30.41
-21.75
-11.94
-1.98
6.90
14.16
19.59
23.20
25.52
27.18
28.67
30.23
31.88
33.36
34.56
35.28
35.26
34.36
32.52
29.79
26.21
21.86
16.75
11.01
4.92
-1.09
-6.40
-10.39
-12.60
-12.98
-11.92
-10.13
-8.38
-7.28
-7.06
-7.67
-8.81
-10.09
-11.13
-11.60
-11.21
-9.71
-6.97
-3.02
1.88
7.34
12.88
18.14
23.01
27.64
32.35
37.35
42.58
47.59
51.65
54.00
54.16
52.02
47.85
42.07
35.06
27.07
18.28
8.89
-0.72
-10.09
-18.70
-26.19
-32.39
-37.22
-40.64
-42.56
-42.91
-41.72
-39.25
-35.98
-32.53
-29.49
-27.28
-26.07
-25.77
-26.12
-26.73
-27.22
-27.25
-26.62
-25.28
-23.23
-20.56
-17.32
-13.57
-9.39
-4.88
-0.20
4.46
8.94
13.08
16.70
19.59
21.53
22.40
22.21
21.24
19.90
18.64
17.76
17.28
16.98
16.47
15.36
13.44
10.70
7.31
3.54
-0.33
-4.04
-7.36
-10.05
-11.87
-12.64
-12.28
-10.88
-8.69
-6.08
-3.38
-0.83
1.52
3.77
6.11
8.72
11.66
14.89
18.22
21.39
24.14
26.25
27.55
27.95
27.41
25.89
23.32
19.61
14.67
8.53
1.48
-5.93
-12.94
-18.78
-22.89
-25.13
-25.71
-25.10
-23.77
-22.03
-20.02
-17.77
-15.37
-13.04
-11.11
-9.85
-9.43
-9.85
-10.96
-12.59
-14.55
-16.64
-18.61
-20.09
-20.70
-20.15
-18.40
-15.64
-12.22
-8.46
-4.43
0.07
5.40
11.79
19.17
27.01
34.42
40.39
44.08
45.00
43.10
38.68
32.29
24.57
16.13
7.55
-0.68
-8.13
-14.49
-19.59
-23.40
-26.02
-27.63
-28.41
-28.53
-28.11
-27.26
-26.00
-24.34
-22.18
-19.38
-15.82
-11.49
-6.54
-1.33
3.73
8.24
11.98
14.89
17.03
18.48
19.22
19.18
18.26
16.42
13.71
10.32
6.51
2.52
-1.42
-5.16
-8.54
-11.47
-13.90
-15.86
-17.48
-18.93
-20.35
-21.75
-23.00
-23.80
-23.80
-22.74
-20.51
-17.18
-12.95
-8.11
-2.92
2.39
7.56
12.34
16.43
19.59
21.70
22.82
23.22
23.20
23.05
22.95
22.91
22.81
22.43
21.52
19.81
17.15
13.51
9.14
4.51
0.28
-2.89
-4.50
-4.37
-2.74
-0.13
2.78
5.38
7.28
8.39
8.88
9.07
9.27
9.66
10.23
10.86
11.37
11.62
11.56
11.25
10.85
10.51
10.35
10.41
10.64
10.90
10.99
10.67
9.70
7.89
5.19
1.78
-1.92
-5.31
-7.82
-9.06
-8.99
-7.95
-6.50
-5.20
-4.45
-4.42
-5.06
-6.22
-7.78
-9.62
-11.59
-13.48
-14.96
-15.73
-15.55
-14.46
-12.70
-10.70
-8.88
-7.61
-7.00
-6.99
-7.28
-7.47
-7.19
-6.18
-4.45
-2.26
-0.03
1.81
2.99
3.46
3.33
2.79
1.95
0.81
-0.67
-2.49
-4.50
-6.45
-8.00
-8.80
-8.63
-7.40
-5.15
-2.03
1.74
5.89
10.10
13.97
17.14
19.34
20.51
20.89
20.91
21.07
21.70
22.77
23.97
24.81
24.82
23.79
21.72
18.84
15.44
11.78
8.03
4.33
0.80
-2.46
-5.33
-7.76
-9.76
-11.44
-12.95
-14.40
-15.83
-17.15
-18.22
-18.86
-19.01
-18.66
-17.88
-16.72
-15.13
-13.02
-10.32
-7.09
-3.53
0.05
3.31
6.06
8.30
10.16
11.78
13.17
14.09
14.21
13.18
10.86
7.40
3.22
-1.15
-5.22
-8.66
-11.34
-13.27
-14.55
-15.28
-15.52
-15.30
-14.55
-13.12
-10.80
-7.39
-2.87
2.56
8.45
14.12
18.90
22.22
23.82
23.72
22.16
19.52
16.18
12.48
8.70
5.04
1.62
-1.49
-4.30
-6.81
-9.01
-10.86
-12.31
-13.34
-13.97
-14.32
-14.55
-14.77
-14.98
-15.01
-14.57
-13.29
-10.93
-7.44
-3.02
1.99
7.16
12.13
16.67
20.63
23.97
26.68
28.75
30.12
30.67
30.13
28.18
24.55
19.21
12.44
4.90
-2.64
-9.53
-15.39
-20.21
-24.21
-27.61
-30.47
-32.67
-33.94
-33.97
-32.56
-29.60
-25.06
-19.02
-11.67
-3.44
4.98
12.72
18.93
23.05
25.03
25.33
24.74
24.11
23.99
24.53
25.46
26.22
26.17
24.79
21.80
17.18
11.18
4.20
-3.29
-10.74
-17.64
-23.40
-27.49
-29.45
-29.09
-26.54
-22.30
-17.08
-11.68
-6.75
-2.74
0.17
2.01
2.96
3.28
3.20
2.89
2.45
1.92
1.34
0.70
-0.01
-0.91
-2.16
-3.95
-6.30
-9.05
-11.79
-14.02
-15.32
-15.45
-14.45
-12.54
-9.99
-7.08
-4.01
-0.96
1.87
4.25
5.96
6.85
6.88
6.17
4.93
3.45
1.95
0.58
-0.67
-1.93
-3.28
-4.73
-6.09
-7.05
-7.33
-6.82
-5.66
-4.22
-2.96
-2.25
-2.29
-3.05
-4.31
-5.67
-6.71
-7.04
-6.38
-4.68
-2.09
1.05
4.33
7.40
10.01
12.03
13.40
14.13
14.22
13.76
12.81
11.53
10.02
8.43
6.85
5.32
3.85
2.37
0.78
-1.08
-3.36
-6.07
-9.12
-12.23
-15.07
-17.26
-18.49
-18.50
-17.16
-14.50
-10.79
-6.49
-2.22
1.44
4.11
5.72
6.45
6.68
6.73
6.78
6.77
6.55
5.95
4.91
3.52
1.97
0.48
-0.83
-1.97
-3.02
-4.12
-5.33
-6.60
-7.80
-8.80
-9.44
-9.61
-9.20
-8.06
-6.04
-3.04
0.89
5.58
10.72
15.92
20.76
24.84
27.80
29.32
29.22
27.49
24.34
20.19
15.56
10.97
6.80
3.25
0.33
-2.02
-3.93
-5.56
-7.04
-8.54
-10.21
-12.12
-14.21
-16.18
-17.60
-17.98
-17.02
-14.76
-11.58
-8.09
-4.90
-2.45
-0.90
-0.22
-0.28
-0.95
-2.09
-3.53
-5.03
-6.31
-7.16
-7.54
-7.52
-7.26
-6.86
-6.31
-5.59
-4.69
-3.71
-2.84
-2.28
-2.13
-2.34
-2.70
-2.96
-2.87
-2.33
-1.36
-0.07
1.39
2.92
4.44
5.88
7.11
7.99
8.41
8.31
7.75
6.90
5.98
5.25
4.92
5.12
5.90
7.18
8.76
10.36
11.65
12.31
12.15
11.11
9.23
6.65
3.62
0.47
-2.39
-4.54
-5.64
-5.55
-4.34
-2.31
0.12
2.48
4.43
5.75
6.40
6.51
6.29
5.94
5.62
5.33
4.98
4.37
3.32
1.68
-0.54
-3.25
-6.25
-9.33
-12.31
-15.04
-17.45
-19.45
-20.93
-21.71
-21.59
-20.43
-18.20
-15.00
-11.06
-6.65
-2.02
2.56
6.82
10.48
13.30
15.19
16.25
16.75
17.00
17.19
17.30
17.11
16.38
15.00
13.17
11.32
10.07
9.86
10.88
12.90
15.34
17.53
18.93
19.37
19.14
18.87
19.37
21.22
24.54
28.68
32.26
33.43
30.54
22.80
10.86
-3.08
-15.80
-24.00
-25.39
-19.35
-7.13
8.62
24.55
37.49
45.18
46.56
41.90
32.55
20.51
7.81
-3.97
-14.01
-22.32
-29.38
-35.84
-42.07
-48.04
-53.37
-57.54
-60.03
-60.59
-59.23
-56.21
-51.92
-46.86
-41.52
-36.37
-31.83
-28.18
-25.50
-23.64
-22.33
-21.24
-20.11
-18.88
-17.62
-16.47
-15.51
-14.74
-14.06
-13.35
-12.43
-11.17
-9.42
-7.04
-3.85
0.32
5.62
12.09
19.56
27.71
35.93
43.43
49.32
52.86
53.65
51.73
47.47
41.47
34.48
27.16
19.89
12.79
5.76
-1.33
-8.43
-15.41
-22.00
-27.75
-32.29
-35.58
-37.96
-40.01
-42.11
-44.11
-45.42
-45.01
-41.63
-34.32
-23.01
-8.58
7.20
22.35
35.09
43.83
46.47
41.99
31.53
17.94
4.41
-6.76
-15.23
-21.08
-24.77
-27.10
-28.92
-31.03
-34.21
-37.84
-41.52
-44.58
-46.18
-45.83
-43.54
-39.58
-34.36
-28.35
-21.99
-15.78
-10.00
-4.72
0.01
4.20
8.04
11.76
15.41
18.86
21.74
23.77
24.99
25.59
25.84
26.03
26.27
26.47
26.43
25.84
24.55
22.58
20.06
17.14
13.98
10.74
7.54
4.53
1.86
-0.27
-1.57
-1.79
-0.75
1.63
5.27
9.98
15.48
21.39
27.33
32.88
37.62
41.18
43.42
44.40
44.50
44.21
43.99
44.07
44.29
44.14
42.95
40.09
35.23
28.44
20.18
11.14
2.00
-6.62
-14.32
-20.80
-25.81
-29.15
-30.79
-30.97
-30.16
-29.03
-28.24
-28.21
-29.00
-30.37
-31.90
-33.18
-33.94
-34.04
-33.48
-32.35
-30.80
-28.96
-26.99
-25.01
-23.14
-21.41
-19.70
-17.78
-15.51
-12.91
-10.20
-7.70
-5.64
-4.08
-2.76
-1.06
1.61
5.48
10.23
15.18
19.55
22.82
24.79
25.58
25.82
26.18
27.03
28.38
29.95
31.41
32.54
33.21
33.50
34.10
35.82
39.34
44.84
52.12
60.55
69.31
77.38
80.62
75.73
61.93
41.98
20.41
1.04
-14.36
-25.50
-33.91
-40.69
-46.04
-49.80
-52.03
-53.37
-54.05
-54.61
-55.39
-56.49
-57.71
-58.52
-58.48
-57.50
-55.90
-54.16
-52.71
-51.63
-50.75
-49.67
-47.85
-44.88
-40.57
-35.08
-28.79
-22.30
-16.11
-10.57
-5.73
-1.31
3.12
8.06
13.79
20.23
26.93
33.29
38.75
42.89
45.41
46.13
45.23
42.92
39.42
34.81
29.25
23.05
16.63
10.36
4.62
-0.01
-3.18
-4.99
-5.93
-6.57
-7.12
-7.36
-6.71
-4.40
0.82
9.71
22.15
36.94
52.33
66.53
78.23
86.59
88.09
80.53
64.11
41.81
17.75
-4.62
-23.07
-36.38
-44.90
-49.79
-51.85
-52.01
-51.37
-51.00
-51.55
-53.26
-55.15
-56.55
-56.91
-55.47
-51.74
-45.66
-37.72
-28.74
-19.67
-11.42
-4.80
-0.16
2.95
5.23
7.32
9.56
12.03
14.63
17.25
19.63
21.71
23.63
25.54
27.45
29.16
30.39
30.74
29.73
26.78
21.72
14.87
6.90
-1.30
-8.87
-14.93
-18.86
-20.56
-20.60
-19.57
-17.97
-16.15
-14.33
-12.48
-10.16
-6.96
-2.87
1.37
5.25
8.56
11.31
13.68
15.95
18.92
23.31
29.39
36.49
44.04
51.41
57.80
62.09
60.84
51.93
35.96
18.65
2.62
-11.01
-22.11
-30.43
-36.17
-39.92
-41.96
-42.46
-41.60
-40.04
-38.00
-35.47
-32.51
-29.42
-26.48
-23.59
-20.61
-17.59
-15.20
-13.85
-13.63
-14.48
-16.24
-18.68
-21.32
-23.73
-25.63
-27.12
-28.04
-28.05
-26.74
-23.87
-19.44
-13.66
-6.94
0.09
6.68
12.38
16.99
20.52
23.07
24.77
25.87
26.62
27.26
27.90
28.73
29.83
31.19
32.59
33.72
34.20
33.70
32.00
28.95
24.78
19.84
14.54
9.23
4.18
-0.39
-4.32
-7.50
-9.94
-11.38
-11.59
-10.38
-7.86
-4.41
-0.67
2.70
5.15
6.46
7.28
8.64
11.53
16.39
23.03
30.82
38.96
46.68
51.17
49.86
41.17
25.71
6.09
-14.24
-31.98
-44.82
-51.85
-54.52
-54.11
-51.62
-47.67
-42.68
-37.00
-31.06
-25.40
-20.61
-16.81
-14.07
-12.32
-11.31
-10.52
-9.77
-9.18
-8.96
-9.29
-10.09
-10.88
-11.08
-10.31
-8.56
-6.20
-3.70
-1.44
0.51
2.37
4.71
8.19
13.28
20.05
28.02
36.37
44.14
50.41
54.42
55.77
54.40
50.53
44.56
36.90
28.16
19.04
10.16
1.97
-5.35
-11.85
-17.69
-23.02
-27.92
-32.17
-35.39
-37.28
-37.90
-37.51
-36.40
-34.61
-31.80
-27.45
-20.81
-11.44
0.48
13.94
27.51
39.89
50.19
58.15
61.79
59.32
50.14
35.65
18.57
1.84
-12.19
-23.41
-32.13
-38.98
-44.47
-48.95
-51.68
-52.32
-50.85
-47.58
-43.20
-38.40
-33.82
-29.56
-25.31
-20.58
-15.31
-9.78
-4.54
-0.15
3.24
5.71
7.69
9.65
11.90
14.32
16.66
18.65
20.19
21.40
22.54
23.89
25.75
28.34
31.62
35.33
38.99
41.86
43.18
42.30
38.94
33.33
26.23
18.60
11.39
5.19
0.16
-3.91
-7.48
-11.03
-14.87
-18.99
-23.18
-27.08
-30.32
-32.64
-33.88
-33.97
-32.93
-30.69
-26.94
-21.39
-14.02
-5.40
3.42
11.28
17.36
21.40
23.24
22.83
20.19
15.35
8.57
0.57
-7.43
-14.03
-18.91
-22.36
-24.91
-27.02
-28.81
-29.98
-30.07
-28.86
-25.86
-20.77
-14.37
-7.98
-2.80
0.57
2.20
2.51
2.04
1.08
-0.38
-2.34
-4.56
-6.62
-7.99
-8.07
-6.40
-2.78
2.71
9.57
17.07
24.55
31.55
37.85
43.35
47.85
50.99
52.21
50.91
46.77
39.96
31.19
21.47
11.83
3.02
-4.65
-11.20
-16.81
-21.63
-25.58
-28.41
-29.79
-29.48
-27.39
-23.69
-18.76
-13.18
-7.73
-3.23
-0.39
0.44
-0.55
-2.59
-4.55
-5.27
-3.96
-0.41
4.96
11.38
17.96
24.03
29.14
33.06
35.65
36.80
36.39
34.41
30.97
26.32
20.82
14.85
8.71
2.61
-3.36
-9.13
-14.55
-19.33
-22.98
-25.00
-25.04
-23.01
-19.23
-14.25
-8.75
-3.29
1.81
6.41
10.49
13.97
16.64
18.17
18.22
16.58
13.25
8.52
2.85
-3.29
-9.49
-15.47
-21.10
-26.31
-31.02
-35.18
-38.79
-41.90
-44.65
-47.15
-49.43
-51.37
-52.69
-52.99
-51.85
-48.93
-44.05
-37.21
-28.60
-18.68
-8.07
2.37
11.68
18.90
23.43
25.21
24.95
23.90
23.43
24.44
26.87
29.70
31.32
30.28
25.90
18.48
9.17
-0.60
-9.58
-16.91
-22.11
-24.89
-25.05
-22.55
-17.72
-11.30
-4.36
1.98
6.90
10.08
11.71
12.26
12.25
12.02
11.68
11.18
10.46
9.49
8.33
7.14
6.09
5.29
4.76
4.42
4.07
3.49
2.46
0.88
-1.25
-3.79
-6.51
-9.08
-11.21
-12.57
-12.96
-12.30
-10.69
-8.41
-5.86
-3.45
-1.52
-0.21
0.50
0.77
0.78
0.72
0.72
0.91
1.42
2.43
4.05
6.33
9.17
12.28
15.28
17.77
19.49
20.34
20.35
19.67
18.44
16.82
15.02
13.31
12.02
11.39
11.50
12.13
12.89
13.30
13.06
12.11
10.65
8.99
7.45
6.15
5.08
4.14
3.22
2.27
1.29
0.26
-0.91
-2.33
-4.09
-6.16
-8.42
-10.66
-12.70
-14.47
-15.91
-16.98
-17.55
-17.38
-16.26
-14.06
-10.94
-7.23
-3.41
0.06
2.86
4.85
6.02
6.47
6.33
5.78
4.99
4.12
3.21
2.21
0.96
-0.65
-2.61
-4.69
-6.44
-7.34
-6.95
-5.16
-2.19
1.35
4.70
7.14
8.36
8.51
8.23
8.42
9.85
12.88
17.16
21.81
25.65
27.63
27.17
24.31
19.67
14.22
8.98
4.72
1.82
0.26
-0.18
0.17
0.94
1.83
2.55
2.80
2.19
0.45
-2.44
-6.22
-10.40
-14.49
-18.19
-21.33
-23.82
-25.66
-26.71
-26.81
-25.84
-23.91
-21.42
-18.86
-16.62
-14.30
-11.69
-8.84
-6.15
-4.41
-3.71
-3.90
-4.74
-5.86
-6.96
-7.90
-8.62
-9.08
-9.17
-8.74
-7.83
-6.62
-5.40
-4.42
-3.95
-4.05
-4.61
-5.15
-5.08
-3.91
-1.49
2.00
6.10
10.28
14.07
17.23
19.98
22.68
25.63
28.84
32.07
35.07
37.72
39.98
40.58
38.47
33.26
25.48
16.28
6.82
-1.98
-9.51
-15.57
-20.28
-23.80
-26.74
-29.18
-31.13
-32.60
-33.45
-33.38
-32.03
-29.32
-25.30
-20.35
-14.93
-9.33
-4.04
0.14
2.69
3.68
3.55
2.74
1.52
0.21
-1.00
-2.12
-3.27
-4.48
-5.67
-6.70
-7.43
-7.77
-7.70
-7.34
-6.95
-6.75
-6.82
-6.95
-6.94
-6.60
-5.82
-4.48
-2.46
0.24
3.56
7.29
11.34
15.48
19.31
22.35
24.30
25.10
24.99
24.42
23.89
24.13
25.69
28.70
32.92
37.77
42.56
46.57
49.13
47.90
41.49
30.23
16.14
1.75
-11.18
-21.85
-30.12
-36.06
-40.38
-43.18
-44.38
-44.07
-42.59
-40.38
-37.75
-34.85
-31.83
-27.77
-22.61
-16.93
-11.66
-7.54
-4.92
-3.58
-3.14
-3.33
-3.89
-4.54
-4.89
-4.80
-4.23
-3.38
-2.56
-2.07
-2.09
-2.61
-3.47
-4.39
-5.07
-5.24
-4.73
-3.50
-1.58
0.88
3.65
6.43
8.90
10.84
12.10
12.70
12.80
12.71
12.81
13.47
14.84
16.96
19.73
23.03
26.77
30.81
34.93
38.81
42.04
44.24
45.12
44.58
42.69
39.58
35.38
30.21
24.27
17.91
11.65
6.06
1.61
-1.50
-3.52
-4.99
-6.63
-9.09
-12.77
-17.76
-23.80
-30.41
-36.96
-42.84
-47.56
-50.84
-52.62
-53.03
-52.24
-50.37
-47.55
-43.93
-39.78
-35.45
-31.28
-27.46
-24.03
-20.91
-18.05
-15.51
-13.44
-11.96
-11.06
-10.46
-9.73
-8.40
-6.15
-2.95
0.91
4.96
8.65
11.48
13.18
13.71
13.24
12.07
10.52
8.84
7.22
5.77
4.59
3.82
3.58
3.95
4.94
6.51
8.58
11.03
13.79
16.72
19.62
22.22
24.24
25.53
26.14
26.35
26.52
26.92
27.62
28.49
29.25
29.56
29.08
27.54
24.68
20.39
14.75
8.13
1.10
-5.67
-11.64
-16.54
-20.40
-23.50
-26.12
-28.42
-30.38
-31.79
-32.37
-31.98
-30.65
-28.64
-26.40
-24.32
-22.72
-21.61
-20.83
-20.02
-18.83
-17.02
-14.52
-11.42
-7.95
-4.35
-0.87
2.28
4.91
6.88
8.04
8.35
7.87
6.81
5.50
4.28
3.36
2.80
2.48
2.20
1.80
1.23
0.56
-0.00
-0.22
0.15
1.28
3.20
5.76
8.67
11.51
13.90
15.61
16.62
17.15
17.56
18.20
19.34
21.07
23.26
25.73
28.22
30.49
32.38
33.75
34.47
34.38
33.33
31.17
27.83
23.40
18.13
12.35
6.45
0.73
-4.59
-9.43
-13.79
-17.73
-21.24
-24.29
-26.77
-28.63
-29.96
-30.92
-31.72
-32.45
-32.96
-32.89
-31.76
-29.25
-25.34
-20.39
-15.04
-9.98
-5.70
-2.42
-0.05
1.57
2.56
2.94
2.68
1.83
0.59
-0.62
-1.39
-1.42
-0.69
0.57
2.01
3.32
4.38
5.31
6.34
7.71
9.56
11.90
14.63
17.57
20.49
23.08
24.98
25.84
25.44
23.85
21.45
18.95
17.08
16.41
17.16
19.15
21.95
25.04
27.91
30.14
31.29
30.99
28.99
25.20
19.79
13.17
5.90
-1.45
-8.40
-14.64
-20.06
-24.69
-28.62
-31.88
-34.42
-36.07
-36.70
-36.34
-35.23
-33.81
-32.53
-31.63
-31.00
-30.27
-28.99
-26.87
-23.94
-20.48
-16.88
-13.45
-10.30
-7.41
-4.73
-2.33
-0.35
1.01
1.67
1.68
1.27
0.73
0.30
0.13
0.23
0.55
1.02
1.61
2.32
3.17
4.15
5.28
6.59
8.10
9.80
11.55
13.06
13.94
13.89
12.77
10.86
8.73
7.10
6.62
7.56
9.81
12.94
16.40
19.74
22.62
24.85
26.28
26.74
26.08
24.20
21.12
17.04
12.30
7.33
2.59
-1.54
-4.83
-7.25
-8.91
-10.02
-10.72
-11.09
-11.16
-11.00
-10.83
-11.02
-11.96
-13.82
-16.44
-19.28
-21.63
-22.88
-22.73
-21.28
-18.91
-16.06
-13.08
-10.16
-7.36
-4.71
-2.32
-0.33
1.13
1.95
2.15
1.84
1.17
0.37
-0.38
-0.92
-1.20
-1.25
-1.13
-0.91
-0.61
-0.22
0.28
0.86
1.39
1.74
1.70
1.08
-0.25
-2.38
-5.26
-8.68
-12.26
-15.52
-18.01
-19.40
-19.52
-18.42
-16.23
-13.16
-9.43
-5.30
-1.08
2.91
6.37
9.07
10.85
11.66
11.52
10.56
9.02
7.20
5.46
4.08
3.23
2.89
2.94
3.14
3.23
2.93
2.01
0.35
-2.04
-4.90
-7.82
-10.28
-11.80
-12.08
-11.07
-8.99
-6.20
-3.08
0.01
2.83
5.27
7.28
8.90
10.15
11.08
11.67
11.92
11.83
11.43
10.80
10.08
9.37
8.80
8.42
8.30
8.47
8.99
9.90
11.16
12.70
14.31
15.73
16.66
16.86
16.25
14.99
13.44
12.06
11.23
11.14
11.70
12.62
13.59
14.43
15.08
15.66
16.28
17.01
17.85
18.76
19.74
20.72
21.56
21.96
21.53
19.96
17.15
13.26
8.63
3.61
-1.63
-7.12
-12.98
-19.24
-25.65
-31.68
-36.66
-40.00
-41.42
-41.01
-39.11
-36.18
-32.61
-28.68
-24.60
-20.60
-16.98
-14.05
-12.05
-11.03
-10.83
-11.17
-11.72
-12.20
-12.47
-12.47
-12.19
-11.62
-10.69
-9.40
-7.74
-5.77
-3.62
-1.43
0.67
2.57
4.25
5.76
7.23
8.85
10.91
13.70
17.43
22.01
27.14
32.35
37.12
40.89
43.20
43.78
42.60
39.91
36.08
31.68
27.36
23.76
21.08
19.18
17.69
16.23
14.42
11.80
8.11
3.40
-1.89
-7.46
-13.09
-18.77
-24.58
-30.67
-37.28
-44.15
-50.50
-55.10
-57.20
-56.63
-53.86
-49.63
-43.22
-34.84
-25.57
-17.86
-11.88
-7.40
-4.12
-2.15
-1.43
-1.70
-2.75
-4.27
-5.82
-6.72
-6.75
-6.03
-5.02
-3.91
-2.71
-1.54
-0.49
0.50
1.86
3.75
6.00
8.06
9.81
11.43
13.13
15.19
17.90
21.86
27.30
33.96
40.94
47.56
53.26
57.28
58.75
55.25
45.79
31.69
17.60
5.16
-5.63
-15.52
-25.01
-34.19
-42.56
-48.83
-51.82
-51.16
-47.79
-42.98
-37.93
-33.53
-30.16
-27.70
-25.52
-23.01
-19.98
-16.77
-13.57
-10.36
-7.07
-3.65
-0.16
3.34
6.63
9.35
10.97
11.40
10.92
9.98
8.99
8.19
7.60
7.04
6.21
4.81
2.83
0.52
-1.79
-3.86
-5.68
-7.35
-9.01
-10.65
-12.05
-12.78
-12.40
-10.69
-7.77
-4.07
-0.14
3.57
6.86
9.75
12.42
15.09
17.86
20.73
23.57
26.18
28.36
29.92
30.72
30.67
29.73
27.95
25.46
22.47
19.28
16.21
13.53
11.42
9.95
9.06
8.68
8.75
9.26
10.25
11.72
13.56
15.51
17.20
18.19
18.19
17.08
14.90
11.72
7.59
2.45
-3.72
-10.77
-18.24
-25.44
-31.61
-36.23
-39.08
-40.31
-40.21
-39.14
-37.38
-35.15
-32.76
-30.57
-29.03
-28.35
-28.45
-28.83
-28.80
-27.78
-25.47
-22.00
-17.82
-13.55
-9.69
-6.50
-4.04
-2.28
-1.16
-0.61
-0.42
-0.29
-0.00
0.68
1.96
3.84
6.22
8.97
11.99
15.32
18.88
22.09
24.28
24.98
24.01
21.58
18.25
14.76
12.00
10.54
10.24
10.79
12.05
13.94
16.39
19.29
22.48
26.11
30.30
34.55
38.36
41.47
43.62
44.50
43.79
39.30
29.96
18.79
7.06
-5.63
-18.86
-31.79
-43.34
-52.53
-58.77
-61.63
-61.17
-56.86
-49.03
-38.84
-28.27
-19.14
-12.40
-8.17
-5.76
-4.27
-3.48
-3.43
-3.98
-4.90
-5.84
-6.52
-6.71
-6.21
-4.99
-3.43
-2.01
-0.95
-0.24
0.24
0.67
1.15
1.77
2.51
3.21
3.72
4.14
4.75
5.96
8.17
11.57
16.08
21.34
26.74
31.61
35.45
38.04
39.38
39.68
39.19
38.12
36.67
34.92
32.90
30.58
27.94
24.95
21.64
18.06
14.23
10.13
5.75
1.11
-3.73
-8.67
-13.66
-18.65
-23.61
-28.41
-32.81
-36.38
-38.71
-39.49
-38.69
-36.57
-33.56
-30.13
-26.68
-23.45
-20.64
-18.38
-16.76
-15.85
-15.61
-15.92
-16.62
-17.53
-18.46
-19.23
-19.71
-19.79
-19.45
-18.71
-17.64
-16.32
-14.79
-13.05
-11.05
-8.75
-6.12
-3.23
-0.19
2.86
5.80
8.56
11.14
13.58
15.99
18.53
21.36
24.56
28.14
31.90
35.50
38.50
40.46
41.08
40.24
38.10
34.94
31.14
27.02
22.88
18.96
15.43
12.42
9.92
7.84
6.04
4.41
2.95
1.73
0.87
0.41
0.25
0.18
-0.04
-0.59
-1.57
-2.99
-4.86
-7.18
-10.00
-13.28
-16.81
-20.26
-23.23
-25.44
-26.72
-27.15
-26.88
-26.12
-25.09
-24.00
-23.05
-22.48
-22.47
-23.05
-24.01
-24.94
-25.36
-24.88
-23.35
-20.84
-17.65
-14.18
-10.76
-7.67
-5.05
-3.00
-1.55
-0.63
-0.03
0.48
1.08
1.84
2.70
3.57
4.32
5.02
6.00
7.77
10.74
15.02
20.39
26.35
32.36
37.82
41.83
43.40
41.93
37.58
31.14
23.59
15.78
8.46
1.85
-4.07
-9.25
-13.64
-17.27
-20.27
-22.86
-25.31
-27.06
-28.01
-28.22
-27.81
-26.95
-25.79
-24.48
-23.15
-21.89
-20.70
-19.71
-18.85
-17.92
-16.62
-14.68
-11.90
-8.28
-3.99
0.69
5.26
9.33
12.67
15.19
16.93
18.00
18.54
18.67
18.43
17.70
16.50
14.88
13.00
10.96
8.84
6.79
4.95
3.42
2.22
1.54
1.50
2.14
3.18
4.20
4.94
5.36
5.72
6.47
8.41
12.16
18.12
25.97
34.97
44.26
53.10
60.92
65.06
63.30
54.50
39.76
21.32
1.67
-16.87
-32.37
-43.51
-49.92
-51.96
-51.83
-50.51
-48.73
-46.78
-44.54
-41.68
-37.95
-33.34
-26.73
-18.50
-9.30
-0.12
8.08
14.42
18.16
18.86
16.61
12.29
7.09
2.81
0.25
-0.41
0.35
1.75
3.01
3.66
3.64
3.01
2.19
1.38
0.61
-0.36
-1.85
-4.23
-7.46
-11.21
-14.84
-17.25
-17.38
-14.61
-9.05
-1.60
6.42
13.66
19.09
22.45
24.35
25.86
28.11
31.76
36.80
42.61
48.00
51.25
49.07
39.05
21.39
-0.53
-21.84
-38.50
-48.57
-52.25
-52.41
-50.89
-48.59
-45.86
-42.81
-39.56
-36.37
-33.50
-30.53
-27.38
-23.89
-19.96
-15.64
-11.14
-6.87
-3.29
-0.75
0.62
0.86
0.41
-0.15
-0.27
0.32
1.59
3.25
4.91
6.28
7.19
7.79
8.43
9.54
11.60
15.13
20.49
27.66
36.12
44.79
52.31
57.33
58.83
56.38
50.49
42.26
33.00
23.80
15.21
7.43
0.32
-6.32
-12.55
-17.88
-21.73
-23.71
-23.85
-22.58
-20.41
-17.75
-14.78
-11.46
-7.13
-1.12
6.94
16.86
27.99
39.56
50.71
60.56
65.88
63.76
53.05
35.52
15.03
-4.40
-19.91
-30.35
-35.96
-38.59
-39.39
-38.97
-37.76
-36.27
-35.16
-35.00
-36.38
-39.67
-44.13
-48.52
-51.72
-53.01
-52.33
-50.04
-45.19
-37.50
-27.44
-16.21
-5.00
5.16
13.79
20.83
26.13
29.67
31.64
32.70
33.13
33.87
35.79
39.30
44.14
49.40
53.84
56.01
54.87
50.03
41.95
31.60
20.04
8.03
-4.11
-16.40
-28.99
-41.79
-54.30
-65.47
-74.05
-78.87
-79.15
-74.75
-66.24
-54.80
-41.95
-29.13
-17.41
-7.40
0.61
6.52
10.31
12.06
12.10
11.06
9.79
9.10
9.41
10.56
11.95
12.77
12.34
10.36
6.98
2.68
-1.84
-5.89
-8.93
-10.66
-11.00
-10.08
-8.15
-5.51
-2.47
0.59
3.33
5.42
6.63
6.88
6.28
5.04
3.40
1.56
-0.32
-2.08
-3.56
-4.56
-4.94
-4.66
-3.83
-2.70
-1.55
-0.58
0.17
0.87
1.81
3.30
5.47
8.26
11.43
14.62
17.56
20.03
21.91
23.12
23.55
23.14
21.88
19.88
17.32
14.42
11.37
8.34
5.51
3.11
1.39
0.54
0.58
1.30
2.31
3.15
3.37
2.70
1.09
-1.25
-3.85
-6.10
-7.35
-7.11
-5.26
-2.03
2.02
6.26
10.22
13.68
16.67
19.37
21.98
24.65
27.45
30.38
33.36
36.22
38.76
40.77
42.12
42.72
42.42
40.98
37.97
32.95
25.70
16.34
5.48
-5.91
-16.73
-26.00
-33.05
-37.57
-39.66
-39.68
-38.20
-35.78
-32.93
-29.99
-27.23
-24.85
-23.02
-21.88
-21.43
-21.53
-21.86
-22.10
-22.02
-21.51
-20.62
-19.43
-17.97
-16.25
-14.22
-11.90
-9.32
-6.49
-3.31
0.45
5.08
10.79
17.61
25.29
33.34
40.99
47.45
52.00
54.08
53.39
49.85
43.83
36.02
27.35
18.60
10.27
2.50
-4.93
-12.27
-19.67
-26.75
-32.75
-36.85
-38.70
-38.48
-36.73
-34.01
-30.59
-26.40
-20.92
-13.64
-4.32
6.44
17.58
28.04
37.02
44.12
47.41
45.10
36.60
23.64
9.04
-4.51
-15.25
-23.44
-29.61
-34.39
-38.18
-41.31
-42.96
-43.02
-41.61
-39.07
-35.93
-32.70
-29.94
-26.95
-24.81
-22.65
-20.02
-16.63
-12.51
-7.95
-3.27
1.18
5.35
9.29
13.40
17.60
21.61
25.00
27.40
28.71
29.02
28.62
27.72
26.58
25.01
22.69
19.33
14.90
9.67
4.12
-1.26
-6.20
-10.47
-14.08
-16.97
-18.94
-19.67
-18.91
-16.68
-13.39
-9.66
-6.03
-2.86
-0.16
2.25
4.65
7.20
9.98
13.02
16.35
20.03
24.08
28.31
32.32
35.52
37.28
37.10
34.71
30.13
23.63
15.65
6.76
-2.41
-11.17
-18.81
-24.75
-28.58
-30.17
-29.70
-27.59
-24.38
-20.71
-17.10
-13.99
-11.66
-10.20
-9.52
-9.41
-9.57
-9.71
-9.64
-9.29
-8.69
-7.91
-7.02
-6.06
-4.96
-3.65
-2.02
-0.05
2.21
4.64
7.10
9.41
11.38
12.83
13.53
13.32
12.11
9.95
7.08
3.83
0.61
-2.23
-4.47
-5.98
-6.81
-7.11
-7.09
-7.00
-6.97
-7.03
-7.09
-6.97
-6.54
-5.71
-4.47
-2.82
-0.68
2.06
5.49
9.63
14.38
19.59
25.09
30.73
36.32
41.58
46.10
49.39
50.99
50.53
47.84
42.90
35.83
26.88
16.46
5.10
-6.51
-17.70
-27.84
-36.43
-43.03
-47.33
-49.19
-48.69
-46.22
-42.42
-38.05
-33.72
-29.74
-26.09
-22.42
-18.29
-13.33
-7.37
-0.42
7.33
15.66
24.39
33.36
42.41
51.21
59.27
65.91
70.43
72.28
71.24
67.47
61.54
54.23
46.43
38.92
32.32
27.01
23.08
20.42
18.67
17.31
15.79
13.71
11.05
8.21
5.94
4.99
5.77
8.08
11.17
13.98
15.50
15.17
12.95
9.32
5.05
0.96
-2.30
-4.42
-5.49
-5.88
-6.14
-6.75
-7.93
-9.64
-11.60
-13.50
-15.13
-16.43
-17.45
-18.33
-19.16
-20.01
-20.88
-21.68
-22.19
-22.06
-20.88
-18.32
-14.27
-9.03
-3.18
2.46
7.18
10.49
12.24
12.51
11.49
9.32
6.13
2.03
-2.73
-7.76
-12.57
-16.65
-19.65
-21.50
-22.43
-22.93
-23.64
-25.19
-27.99
-32.12
-37.28
-42.76
-47.68
-51.18
-52.60
-51.66
-48.49
-43.57
-37.60
-31.39
-25.66
-20.96
-17.61
-15.62
-14.84
-14.97
-15.68
-16.64
-17.49
-17.91
-17.62
-16.46
-14.42
-11.63
-8.31
-4.69
-0.98
2.59
5.74
8.13
9.46
9.64
8.80
7.30
5.51
3.61
1.52
-0.95
-3.92
-7.23
-10.46
-13.08
-14.74
-15.41
-15.43
-15.28
-15.36
-15.83
-16.58
-17.34
-17.88
-18.06
-17.95
-17.69
-17.46
-17.36
-17.48
-17.84
-18.50
-19.51
-20.93
-22.73
-24.78
-26.82
-28.55
-29.72
-30.17
-29.92
-29.14
-28.20
-27.57
-27.81
-29.33
-32.22
-35.96
-39.40
-40.94
-39.03
-32.79
-22.43
-9.36
4.30
16.30
25.04
29.85
31.05
29.61
26.77
23.71
21.38
20.43
21.13
23.30
26.17
28.57
29.24
27.39
23.11
17.37
11.63
7.10
4.06
1.80
-0.91
-4.98
-10.27
-15.56
-19.26
-20.34
-19.06
-17.01
-16.30
-18.63
-24.49
-33.05
-42.68
-51.54
-58.20
-61.75
-61.78
-58.31
-51.77
-43.12
-33.73
-25.14
-18.65
-14.95
-13.99
-15.04
-16.93
-18.43
-18.46
-16.32
-11.81
-5.21
2.81
11.38
19.63
26.89
32.68
36.71
38.82
38.90
36.95
33.12
27.76
21.36
14.51
7.80
1.82
-2.89
-5.91
-6.98
-6.13
-3.71
-0.34
3.13
5.89
7.34
7.19
5.50
2.62
-0.95
-4.71
-8.26
-11.35
-13.89
-15.98
-17.77
-19.38
-20.75
-21.59
-21.41
-19.77
-16.36
-11.22
-4.70
2.61
10.10
17.32
24.04
30.25
36.08
41.61
46.78
51.35
54.94
57.20
57.95
57.27
55.54
53.46
51.91
51.93
54.32
59.25
65.75
71.69
74.23
70.79
60.12
42.98
22.01
0.76
-17.49
-30.74
-38.59
-41.79
-41.60
-39.10
-34.91
-29.19
-21.95
-13.21
-3.27
7.22
17.25
25.45
30.42
30.96
26.51
17.32
4.50
-10.12
-24.33
-35.96
-43.30
-45.50
-42.80
-36.44
-28.36
-20.61
-14.83
-11.79
-11.37
-12.79
-14.99
-16.95
-17.94
-17.54
-15.68
-12.60
-8.79
-4.94
-1.63
0.84
2.56
3.96
5.55
7.56
9.85
11.92
13.13
13.02
11.53
9.09
6.46
4.43
3.54
3.88
5.13
6.63
7.61
7.52
6.26
4.28
2.44
1.71
2.83
6.14
11.34
17.52
23.47
28.15
31.04
32.23
32.29
32.03
32.53
34.46
37.78
41.86
45.82
48.97
50.97
51.82
51.77
51.97
53.20
55.41
57.61
58.62
57.69
54.83
50.69
46.37
44.12
45.42
50.08
56.40
62.29
66.37
68.33
68.68
68.36
69.88
74.87
83.13
92.78
101.56
108.03
111.63
112.30
100.51
71.98
30.32
-14.57
-53.51
-82.55
-101.93
-113.63
-119.73
-121.81
-119.53
-112.90
-103.35
-93.55
-86.04
-81.74
-79.99
-79.32
-78.33
-75.32
-69.59
-62.20
-55.44
-51.62
-51.68
-55.15
-60.59
-65.97
-68.22
-64.61
-53.85
-35.61
-13.42
7.75
23.16
29.88
27.71
19.34
8.76
-0.60
-6.94
-10.33
-11.47
-11.14
-9.79
-7.62
-4.78
-1.72
0.77
1.90
1.22
-0.86
-3.31
-5.03
-5.32
-4.15
-2.10
-0.09
1.09
0.95
-0.29
-1.98
-3.39
-4.04
-3.85
-3.14
-2.42
-2.07
-2.34
-3.09
-3.97
-4.55
-4.55
-3.89
-2.82
-1.73
-0.98
-0.82
-1.23
-2.01
-2.88
-3.62
-4.09
-4.21
-4.21
-4.14
-3.97
-3.71
-3.43
-3.24
-3.24
-3.45
-3.79
-4.17
-4.53
-4.87
-5.26
-5.68
-5.98
-5.91
-5.19
-3.64
-1.26
1.76
5.11
8.43
11.40
13.80
15.51
16.52
16.89
16.74
16.21
15.43
14.46
13.34
12.14
10.88
9.62
8.35
7.03
5.62
4.12
2.55
0.97
-0.54
-1.91
-3.01
-3.71
-3.79
-3.12
-1.64
0.50
2.98
5.41
7.44
8.87
9.65
9.83
9.52
8.78
7.61
5.99
3.92
1.51
-1.04
-3.48
-5.60
-7.31
-8.71
-9.98
-11.29
-12.69
-14.13
-15.49
-16.67
-17.57
-18.09
-18.07
-17.28
-15.52
-12.80
-9.33
-5.52
-1.80
1.47
4.12
6.11
7.43
8.09
8.09
7.45
6.29
4.78
3.15
1.58
0.23
-0.82
-1.57
-2.06
-2.39
-2.73
-3.21
-3.86
-4.56
-4.99
-4.84
-3.86
-2.04
0.42
3.16
5.84
8.21
10.16
11.67
12.72
13.26
13.27
12.73
11.68
10.24
8.55
6.72
4.89
3.17
1.73
0.70
0.10
-0.18
-0.38
-0.79
-1.60
-2.78
-4.10
-5.13
-5.46
-4.84
-3.24
-0.89
1.85
4.56
6.95
8.80
10.04
10.70
10.86
10.62
10.02
9.05
7.71
5.99
3.98
1.83
-0.23
-2.00
-3.38
-4.38
-5.14
-5.83
-6.59
-7.51
-8.56
-9.59
-10.39
-10.69
-10.27
-9.04
-7.08
-4.66
-2.13
0.18
2.01
3.19
3.67
3.49
2.75
1.62
0.27
-1.12
-2.42
-3.55
-4.43
-5.00
-5.24
-5.19
-4.95
-4.72
-4.71
-5.09
-5.92
-7.06
-8.23
-9.05
-9.15
-8.26
-6.34
-3.55
-0.25
3.15
6.27
8.81
10.65
11.82
12.38
12.43
12.03
11.15
9.80
8.05
6.07
4.14
2.49
1.29
0.51
0.02
-0.34
-0.66
-0.96
-1.25
-1.58
-2.02
-2.62
-3.29
-3.80
-3.88
-3.35
-2.25
-0.79
0.73
1.99
2.86
3.28
3.27
2.91
2.28
1.49
0.64
-0.15
-0.80
-1.23
-1.44
-1.40
-1.17
-0.81
-0.45
-0.18
-0.07
-0.13
-0.29
-0.48
-0.62
-0.61
-0.36
0.21
1.15
2.42
3.84
5.19
6.19
6.71
6.73
6.36
5.81
5.27
4.86
4.63
4.57
4.64
4.85
5.25
5.94
7.04
8.58
10.47
12.45
14.19
15.37
15.79
15.51
14.73
13.84
13.19
13.03
13.49
14.51
15.96
17.60
19.19
20.45
21.15
21.10
20.20
18.44
15.93
12.80
9.22
5.38
1.48
-2.24
-5.57
-8.36
-10.54
-12.11
-13.15
-13.71
-13.86
-13.71
-13.40
-13.14
-13.13
-13.38
-13.74
-13.86
-13.38
-12.08
-10.03
-7.55
-5.02
-2.70
-0.64
1.26
3.11
4.79
6.02
6.45
5.89
4.45
2.54
0.65
-0.87
-1.90
-2.57
-3.10
-3.69
-4.43
-5.33
-6.37
-7.50
-8.66
-9.66
-10.27
-10.19
-9.24
-7.45
-5.01
-2.25
0.49
2.95
4.92
6.24
6.79
6.51
5.43
3.75
1.77
-0.22
-2.02
-3.56
-4.89
-6.04
-7.04
-7.81
-8.31
-8.58
-8.83
-9.27
-10.12
-11.39
-12.92
-14.37
-15.33
-15.50
-14.72
-13.06
-10.75
-8.13
-5.54
-3.24
-1.41
-0.13
0.62
0.89
0.76
0.31
-0.41
-1.37
-2.59
-4.00
-5.49
-6.87
-7.94
-8.56
-8.77
-8.72
-8.66
-8.80
-9.25
-9.99
-10.84
-11.56
-11.85
-11.49
-10.31
-8.29
-5.56
-2.38
1.01
4.44
7.86
11.35
14.97
18.58
21.90
24.48
25.94
26.09
25.04
23.16
20.89
18.65
16.69
15.07
13.71
12.46
11.12
9.49
7.42
4.87
1.99
-0.93
-3.47
-5.24
-6.03
-5.85
-4.92
-3.61
-2.27
-1.19
-0.55
-0.34
-0.49
-0.84
-1.23
-1.60
-1.99
-2.58
-3.58
-5.11
-7.14
-9.38
-11.44
-12.92
-13.61
-13.57
-13.06
-12.46
-12.06
-11.94
-11.99
-11.96
-11.60
-10.74
-9.33
-7.44
-5.20
-2.78
-0.35
1.93
3.94
5.60
6.83
7.51
7.52
6.75
5.20
3.01
0.46
-2.15
-4.57
-6.70
-8.47
-9.87
-10.87
-11.43
-11.59
-11.48
-11.27
-11.09
-10.96
-10.75
-10.23
-9.17
-7.38
-4.83
-1.61
2.04
5.75
9.09
11.69
13.29
13.89
13.67
12.90
11.84
10.61
9.25
7.75
6.16
4.61
3.22
2.03
0.95
-0.27
-1.92
-4.20
-7.13
-10.54
-14.10
-17.34
-19.82
-21.13
-21.00
-19.37
-16.42
-12.53
-8.21
-3.99
-0.29
2.63
4.67
5.89
6.42
6.47
6.24
5.89
5.54
5.19
4.78
4.29
3.77
3.42
3.53
4.29
5.72
7.54
9.29
10.56
11.19
11.47
11.99
13.54
16.68
21.62
28.08
35.40
42.74
49.33
54.65
58.57
61.27
63.16
64.61
65.83
66.68
66.63
64.96
60.86
53.82
43.81
31.45
17.98
4.99
-6.00
-14.00
-18.83
-21.16
-22.19
-23.06
-24.34
-25.80
-26.62
-25.83
-22.97
-18.41
-13.25
-8.87
-6.29
-5.78
-6.74
-8.10
-8.75
-8.07
-6.09
-3.42
-1.02
0.14
-0.60
-3.47
-8.23
-14.24
-20.68
-26.77
-31.93
-35.83
-38.36
-39.50
-39.26
-37.65
-34.82
-31.18
-27.32
-23.92
-21.49
-20.15
-19.63
-19.35
-18.75
-17.54
-15.73
-13.66
-11.74
-10.26
-9.29
-8.70
-8.23
-7.58
-6.48
-4.68
-1.98
1.70
6.13
10.73
14.62
16.89
16.98
15.00
11.81
8.72
7.03
7.45
9.90
13.57
17.37
20.34
22.04
22.53
22.16
21.25
19.91
18.01
15.37
11.96
8.05
4.18
0.92
-1.34
-2.67
-3.54
-4.70
-6.95
-10.87
-16.57
-23.70
-31.48
-38.85
-44.75
-48.34
-49.15
-47.23
-43.10
-37.63
-31.81
-26.44
-22.02
-18.60
-15.88
-13.42
-10.81
-7.87
-4.73
-1.76
0.55
1.89
2.23
1.79
0.92
-0.19
-1.67
-3.92
-7.39
-12.25
-18.09
-23.97
-28.70
-31.27
-31.21
-28.70
-24.32
-18.81
-12.73
-6.49
-0.47
4.80
8.66
10.47
9.96
7.44
3.80
0.23
-2.14
-2.55
-0.70
3.20
8.47
13.96
18.19
19.63
17.19
10.66
0.92
-10.32
-21.17
-30.15
-36.58
-40.49
-42.20
-41.90
-39.54
-35.00
-28.43
-20.44
-12.05
-4.35
1.86
6.29
9.10
10.54
10.74
9.53
6.64
2.00
-4.05
-10.79
-17.36
-23.09
-27.72
-31.26
-33.76
-35.02
-34.58
-31.98
-27.16
-20.62
-13.32
-6.14
0.44
6.57
12.65
18.90
25.00
30.10
33.24
33.72
31.37
26.43
19.42
11.00
2.00
-6.49
-13.29
-17.45
-18.64
-17.33
-14.54
-11.35
-8.38
-5.61
-2.65
0.90
5.12
9.76
14.48
19.14
23.89
29.04
34.90
41.52
48.65
55.70
61.93
66.61
69.16
69.34
67.20
63.08
57.39
50.51
42.75
34.35
25.64
17.05
9.07
2.10
-3.73
-8.55
-12.64
-16.25
-19.42
-21.97
-23.64
-24.28
-23.94
-22.91
-21.56
-20.18
-18.97
-18.01
-17.33
-17.00
-17.04
-17.44
-18.01
-18.46
-18.47
-17.82
-16.51
-14.72
-12.72
-10.80
-9.10
-7.68
-6.51
-5.52
-4.62
-3.70
-2.57
-1.07
0.96
3.52
6.49
9.67
12.78
15.58
17.88
19.51
20.35
20.31
19.36
17.57
15.13
12.38
9.74
7.64
6.45
6.31
7.17
8.75
10.66
12.54
14.13
15.32
16.12
16.58
16.79
16.84
16.83
16.89
17.10
17.42
17.69
17.68
17.24
16.37
15.25
14.19
13.46
13.18
13.26
13.38
13.20
12.42
10.94
8.83
6.30
3.62
0.96
-1.56
-3.93
-6.15
-8.20
-9.99
-11.40
-12.23
-12.32
-11.54
-9.86
-7.40
-4.46
-1.44
1.26
3.34
4.70
5.39
5.55
5.26
4.48
3.11
1.07
-1.58
-4.64
-7.75
-10.57
-12.85
-14.50
-15.57
-16.20
-16.56
-16.72
-16.70
-16.33
-15.40
-13.70
-11.14
-7.81
-4.01
-0.13
3.46
6.54
9.07
11.19
13.07
14.86
16.60
18.27
19.77
21.01
21.90
22.37
22.34
21.77
20.66
19.03
16.95
14.50
11.74
8.75
5.65
2.64
0.04
-1.86
-2.89
-3.09
-2.75
-2.32
-2.22
-2.73
-3.93
-5.70
-7.85
-10.18
-12.51
-14.69
-16.54
-17.93
-18.83
-19.30
-19.49
-19.54
-19.53
-19.42
-19.13
-18.60
-17.88
-17.07
-16.27
-15.47
-14.55
-13.31
-11.53
-9.11
-6.06
-2.55
1.22
4.96
8.42
11.38
13.69
15.28
16.18
16.48
16.32
15.84
15.22
14.60
14.09
13.71
13.37
12.93
12.25
11.30
10.16
9.03
8.20
7.91
8.33
9.56
11.61
14.49
18.16
22.49
27.21
31.92
36.20
39.67
42.16
43.73
44.57
44.84
44.63
43.84
42.35
40.04
36.89
32.90
28.05
22.26
15.47
7.77
-0.49
-8.81
-16.65
-23.66
-29.83
-35.38
-40.56
-45.41
-49.64
-52.68
-53.96
-53.18
-50.44
-46.23
-41.20
-35.97
-30.99
-26.52
-22.71
-19.65
-17.35
-15.72
-14.57
-13.63
-12.68
-11.64
-10.57
-9.62
-8.92
-8.48
-8.20
-7.92
-7.55
-7.11
-6.79
-6.79
-7.23
-8.03
-8.87
-9.29
-8.86
-7.30
-4.63
-1.14
2.69
6.32
9.34
11.56
13.05
14.13
15.15
16.45
18.16
20.23
22.48
24.60
26.31
27.31
27.30
26.05
23.48
19.75
15.26
10.55
6.16
2.43
-0.51
-2.64
-3.96
-4.36
-3.70
-2.03
0.34
2.83
4.73
5.49
4.90
3.13
0.49
-2.66
-6.12
-9.78
-13.51
-17.07
-20.13
-22.40
-23.74
-24.25
-24.16
-23.73
-23.19
-22.67
-22.29
-22.09
-22.10
-22.21
-22.17
-21.63
-20.29
-17.99
-14.82
-11.11
-7.27
-3.70
-0.65
1.79
3.67
5.09
6.14
6.81
7.02
6.70
5.85
4.60
3.18
1.88
0.88
0.21
-0.27
-0.75
-1.42
-2.27
-3.14
-3.66
-3.44
-2.15
0.28
3.63
7.41
11.03
13.98
15.92
16.73
16.45
15.25
13.35
11.05
8.69
6.61
5.10
4.28
4.09
4.32
4.70
5.05
5.25
5.24
4.97
4.34
3.25
1.64
-0.51
-3.09
-5.99
-9.02
-12.05
-14.88
-17.28
-18.99
-19.71
-19.25
-17.61
-14.99
-11.81
-8.56
-5.63
-3.29
-1.62
-0.55
0.01
0.16
0.02
-0.24
-0.49
-0.55
-0.40
-0.12
0.07
-0.14
-0.94
-2.28
-3.86
-5.23
-5.97
-5.92
-5.23
-4.25
-3.34
-2.64
-2.02
-1.14
0.31
2.41
4.96
7.52
9.67
11.19
12.15
12.81
13.48
14.31
15.24
16.06
16.55
16.60
16.20
15.40
14.24
12.67
10.64
8.17
5.41
2.60
-0.00
-2.18
-3.76
-4.56
-4.37
-3.04
-0.58
2.68
6.13
9.08
11.00
11.63
11.07
9.59
7.48
4.88
1.79
-1.73
-5.48
-9.09
-12.06
-14.02
-14.80
-14.53
-13.49
-12.14
-11.02
-10.67
-11.56
-13.89
-17.39
-21.33
-24.64
-26.29
-25.66
-22.76
-18.23
-12.99
-7.89
-3.43
0.23
3.18
5.49
7.12
7.99
8.05
7.41
6.29
4.98
3.70
2.52
1.45
0.46
-0.38
-0.99
-1.24
-1.06
-0.45
0.58
2.02
3.90
6.29
9.24
12.71
16.48
20.20
23.41
25.62
26.46
25.76
23.62
20.36
16.46
12.44
8.69
5.44
2.80
0.72
-0.83
-1.91
-2.52
-2.72
-2.55
-2.15
-1.63
-1.06
-0.40
0.43
1.50
2.68
3.69
4.16
3.82
2.65
0.91
-1.01
-2.79
-4.35
-5.82
-7.41
-9.27
-11.32
-13.40
-15.29
-16.90
-18.19
-19.17
-19.75
-19.81
-19.22
-18.04
-16.46
-14.82
-13.43
-12.51
-12.02
-11.84
-11.74
-11.58
-11.31
-10.98
-10.63
-10.25
-9.75
-8.99
-7.84
-6.26
-4.31
-2.10
0.24
2.66
5.14
7.64
10.11
12.46
14.70
16.92
19.24
21.69
24.08
25.94
26.72
25.98
23.66
20.13
16.08
12.22
9.00
6.49
4.49
2.69
0.94
-0.59
-1.59
-1.75
-1.00
0.46
2.20
3.84
5.17
6.20
7.08
7.89
8.46
8.44
7.44
5.27
2.02
-1.91
-6.05
-10.04
-13.76
-17.32
-20.90
-24.57
-28.22
-31.50
-34.01
-35.37
-35.37
-33.99
-31.34
-27.68
-23.37
-18.78
-14.25
-10.02
-6.20
-2.78
0.28
2.94
5.08
6.49
7.01
6.65
5.61
4.23
2.86
1.71
0.83
0.13
-0.50
-1.16
-1.91
-2.78
-3.83
-5.01
-6.08
-6.50
-5.53
-2.53
2.75
9.89
17.95
25.67
31.91
36.03
37.96
38.07
36.99
35.29
33.38
31.46
29.55
27.55
25.35
22.84
20.01
16.88
13.53
10.07
6.63
3.36
0.42
-2.08
-4.15
-5.92
-7.59
-9.25
-10.85
-12.19
-12.96
-12.97
-12.21
-10.97
-9.65
-8.69
-8.35
-8.70
-9.62
-10.87
-12.25
-13.60
-14.86
-16.02
-17.02
-17.82
-18.28
-18.36
-18.06
-17.55
-17.04
-16.81
-17.02
-17.70
-18.70
-19.72
-20.38
-20.31
-19.31
-17.33
-14.55
-11.29
-7.87
-4.48
-1.20
2.05
5.35
8.68
11.90
14.72
16.85
18.09
18.47
18.26
17.85
17.68
18.02
18.87
19.99
20.93
21.16
20.26
18.07
14.78
10.90
7.15
4.19
2.51
2.24
3.22
5.05
7.30
9.54
11.44
12.76
13.37
13.26
12.53
11.38
9.95
8.36
6.55
4.45
1.98
-0.83
-3.80
-6.71
-9.32
-11.55
-13.45
-15.21
-17.03
-19.01
-21.06
-22.91
-24.22
-24.68
-24.15
-22.66
-20.37
-17.45
-14.09
-10.40
-6.56
-2.81
0.49
3.00
4.49
4.93
4.54
3.66
2.61
1.64
0.80
0.07
-0.64
-1.34
-2.01
-2.58
-2.99
-3.14
-2.95
-2.25
-0.84
1.39
4.46
8.19
12.29
16.44
20.39
24.01
27.24
30.07
32.41
34.12
34.94
34.63
33.02
30.12
26.17
21.61
16.94
12.59
8.76
5.41
2.31
-0.78
-3.94
-7.08
-9.91
-12.08
-13.27
-13.37
-12.46
-10.82
-8.78
-6.68
-4.76
-3.18
-2.06
-1.45
-1.40
-1.88
-2.76
-3.91
-5.27
-6.88
-8.93
-11.60
-14.86
-18.38
-21.61
-23.98
-25.17
-25.17
-24.34
-23.15
-21.99
-20.98
-20.00
-18.76
-17.00
-14.57
-11.52
-8.01
-4.29
-0.60
2.83
5.82
8.20
9.86
10.76
11.02
10.89
10.68
10.65
10.95
11.54
12.26
12.91
13.37
13.60
13.67
13.68
13.74
13.94
14.38
15.15
16.25
17.60
19.00
20.14
20.75
20.66
19.89
18.66
17.26
15.95
14.86
13.96
13.12
12.12
10.79
8.99
6.66
3.81
0.56
-2.90
-6.35
-9.56
-12.32
-14.50
-16.03
-16.95
-17.42
-17.73
-18.24
-19.28
-20.96
-23.10
-25.21
-26.69
-27.04
-26.04
-23.85
-20.84
-17.50
-14.18
-11.05
-8.14
-5.43
-2.93
-0.71
1.16
2.68
3.90
4.94
5.87
6.70
7.36
7.70
7.64
7.16
6.35
5.30
4.08
2.67
1.06
-0.74
-2.57
-4.13
-5.05
-5.05
-4.03
-2.08
0.53
3.52
6.62
9.66
12.50
15.01
17.07
18.58
19.57
20.11
20.37
20.49
20.51
20.37
19.88
18.82
17.05
14.49
11.21
7.40
3.28
-0.86
-4.72
-7.99
-10.43
-11.91
-12.48
-12.33
-11.69
-10.75
-9.56
-8.05
-6.17
-3.95
-1.60
0.57
2.27
3.27
3.47
2.82
1.35
-0.92
-3.88
-7.32
-10.96
-14.50
-17.73
-20.52
-22.84
-24.66
-25.86
-26.32
-25.87
-24.45
-22.12
-19.07
-15.52
-11.70
-7.74
-3.72
0.28
4.11
7.50
10.15
11.76
12.17
11.45
9.87
7.81
5.66
3.69
2.01
0.66
-0.42
-1.23
-1.72
-1.86
-1.66
-1.23
-0.73
-0.29
0.12
0.67
1.68
3.46
6.19
9.80
13.94
18.14
21.85
24.65
26.26
26.60
25.71
23.75
20.94
17.55
13.86
10.11
6.41
2.79
-0.81
-4.43
-8.00
-11.34
-14.18
-16.29
-17.54
-18.00
-17.84
-17.27
-16.49
-15.61
-14.67
-13.71
-12.82
-12.11
-11.72
-11.72
-12.05
-12.52
-12.89
-12.94
-12.60
-11.94
-11.13
-10.30
-9.52
-8.76
-7.91
-6.89
-5.64
-4.18
-2.56
-0.82
0.99
2.74
4.25
5.29
5.71
5.48
4.76
3.86
3.12
2.79
2.99
3.63
4.49
5.28
5.79
5.88
5.56
4.93
4.17
3.41
2.77
2.29
2.01
1.96
2.19
2.79
3.79
5.17
6.85
8.62
10.27
11.49
12.02
11.63
10.19
7.76
4.57
1.03
-2.42
-5.46
-7.93
-9.90
-11.51
-12.81
-13.67
-13.87
-13.19
-11.61
-9.34
-6.73
-4.10
-1.62
0.72
2.98
5.18
7.15
8.59
9.17
8.68
7.09
4.54
1.27
-2.46
-6.43
-10.46
-14.36
-17.89
-20.71
-22.47
-22.89
-21.91
-19.71
-16.68
-13.24
-9.74
-6.31
-2.97
0.30
3.45
6.30
8.63
10.27
11.16
11.36
10.99
10.20
9.12
7.83
6.42
4.93
3.35
1.71
0.11
-1.25
-2.00
-1.76
-0.21
2.73
6.83
11.63
16.55
21.15
25.15
28.52
31.33
33.66
35.47
36.62
36.87
36.02
33.96
30.72
26.48
21.55
16.27
10.98
5.95
1.32
-2.95
-6.97
-10.90
-14.85
-18.75
-22.36
-25.32
-27.25
-27.88
-27.14
-25.21
-22.45
-19.37
-16.42
-13.97
-12.27
-11.42
-11.40
-12.12
-13.42
-15.01
-16.61
-17.96
-18.92
-19.46
-19.65
-19.53
-19.12
-18.37
-17.24
-15.76
-14.07
-12.35
-10.76
-9.31
-7.84
-6.06
-3.74
-0.76
2.80
6.67
10.50
13.97
16.86
19.11
20.73
21.79
22.30
22.28
21.75
20.80
19.59
18.36
17.35
16.67
16.29
16.06
15.76
15.22
14.41
13.42
12.42
11.64
11.26
11.40
12.11
13.31
14.82
16.38
17.69
18.39
18.19
16.95
14.67
11.57
7.93
4.04
0.05
-4.04
-8.30
-12.74
-17.24
-21.50
-25.13
-27.83
-29.43
-30.00
-29.75
-28.98
-27.95
-26.89
-25.96
-25.23
-24.73
-24.37
-24.04
-23.52
-22.63
-21.23
-19.27
-16.85
-14.12
-11.29
-8.52
-5.88
-3.42
-1.17
0.79
2.38
3.57
4.38
4.91
5.29
5.58
5.80
5.89
5.79
5.51
5.15
4.85
4.79
5.06
5.66
6.53
7.60
8.84
10.33
12.25
14.79
18.08
22.09
26.51
30.83
34.44
36.85
37.83
37.49
36.26
34.67
33.22
32.18
31.56
31.11
30.50
29.39
27.54
24.91
21.61
17.85
13.89
9.95
6.14
2.56
-0.74
-3.66
-6.10
-7.98
-9.37
-10.38
-11.17
-11.81
-12.27
-12.48
-12.47
-12.39
-12.56
-13.29
-14.77
-17.02
-19.88
-23.10
-26.44
-29.70
-32.59
-34.83
-36.13
-36.36
-35.66
-34.37
-32.99
-31.86
-31.04
-30.28
-29.17
-27.33
-24.65
-21.25
-17.44
-13.51
-9.65
-5.93
-2.42
0.82
3.63
5.88
7.49
8.53
9.14
9.46
9.54
9.28
8.55
7.28
5.54
3.51
1.52
-0.13
-1.14
-1.32
-0.60
0.94
3.06
5.42
7.73
9.84
11.86
14.17
17.23
21.41
26.71
32.66
38.36
42.77
45.07
44.97
42.81
39.38
35.56
31.96
28.67
25.39
21.71
17.44
12.74
8.04
3.77
0.12
-3.04
-6.09
-9.42
-13.14
-17.09
-20.81
-23.79
-25.67
-26.32
-25.87
-24.60
-22.77
-20.52
-17.95
-15.20
-12.52
-10.31
-8.90
-8.50
-9.02
-10.15
-11.39
-12.31
-12.74
-12.74
-12.63
-12.68
-13.17
-14.22
-15.75
-17.47
-19.00
-19.99
-20.22
-19.72
-18.49
-16.67
-14.44
-11.88
-8.91
-5.36
-1.10
3.91
9.60
15.97
22.83
29.72
35.96
40.75
43.39
43.54
41.44
36.74
30.18
23.07
16.47
10.49
4.59
-1.53
-7.51
-12.52
-15.71
-16.52
-15.23
-12.68
-9.82
-6.78
-3.61
-0.21
3.40
6.94
10.07
12.32
13.33
12.97
11.42
8.91
5.70
1.91
-2.44
-7.18
-12.09
-16.81
-20.92
-24.05
-26.02
-26.85
-26.69
-25.84
-24.55
-23.14
-21.96
-21.31
-21.30
-21.89
-22.76
-23.46
-23.58
-22.87
-21.31
-19.05
-16.33
-13.29
-9.98
-6.40
-2.60
1.29
5.09
8.63
11.88
14.91
17.91
21.05
24.34
27.55
30.26
32.04
32.63
32.13
30.99
29.90
29.60
30.64
33.09
36.68
40.93
45.20
48.80
50.94
50.95
48.45
43.52
36.54
28.30
19.83
12.02
5.36
-0.39
-5.75
-11.26
-17.24
-24.08
-31.68
-39.58
-47.10
-53.48
-58.53
-62.30
-64.94
-66.76
-68.42
-70.28
-72.15
-73.41
-73.21
-71.25
-67.55
-62.28
-53.03
-39.47
-23.50
-8.26
2.65
9.57
13.44
15.21
15.71
15.49
14.62
13.29
11.78
10.41
9.61
9.33
9.48
10.06
11.09
12.50
14.32
16.58
19.21
22.13
24.94
27.38
29.43
31.32
33.54
36.71
41.16
46.77
53.17
59.61
65.50
70.44
71.98
68.34
59.26
46.05
30.67
14.81
-0.45
-14.09
-25.05
-32.45
-36.29
-36.76
-34.68
-31.25
-27.70
-25.02
-23.63
-23.46
-24.24
-25.44
-26.12
-25.86
-24.75
-23.21
-21.95
-21.52
-22.07
-23.41
-24.87
-25.63
-25.25
-23.70
-20.61
-16.41
-11.87
-7.77
-4.56
-2.27
-0.93
-0.64
-1.54
-3.48
-6.25
-9.19
-11.55
-12.88
-13.11
-12.56
-11.48
-9.91
-7.66
-4.59
-0.32
5.31
12.07
19.34
26.31
32.62
38.25
43.26
47.63
51.57
55.13
58.20
60.58
61.92
62.37
62.15
61.34
57.81
50.66
40.60
29.77
21.70
16.37
12.72
9.48
5.32
-0.28
-6.76
-13.13
-18.47
-22.40
-25.35
-27.80
-30.24
-33.04
-36.17
-39.05
-41.08
-41.97
-41.85
-41.27
-40.54
-39.76
-38.94
-37.98
-36.71
-35.10
-33.37
-31.88
-31.10
-31.12
-31.71
-32.38
-32.53
-31.55
-29.15
-25.44
-20.97
-16.47
-12.48
-9.26
-6.80
-4.92
-3.43
-2.22
-1.26
-0.53
-0.02
0.36
0.68
0.90
0.96
0.79
0.39
-0.04
-0.23
0.13
1.25
3.20
5.94
9.31
13.11
17.12
21.10
24.76
27.79
29.91
30.93
30.83
29.78
28.14
26.29
24.54
23.06
21.83
20.73
19.61
18.33
16.80
14.91
12.54
9.66
6.33
2.82
-0.48
-3.11
-4.74
-5.24
-4.82
-3.91
-3.06
-2.78
-3.35
-4.75
-6.66
-8.55
-9.80
-9.92
-8.65
-6.06
-2.50
1.52
5.49
9.00
11.83
13.93
15.31
15.97
15.90
15.07
13.50
11.33
8.74
5.97
3.18
0.43
-2.27
-4.96
-7.64
-10.22
-12.59
-14.61
-16.12
-16.97
-16.98
-15.97
-13.81
-10.52
-6.25
-1.26
4.10
9.53
14.77
19.57
23.67
26.71
28.35
28.43
27.04
24.64
21.94
19.59
18.00
17.17
16.78
16.36
15.61
14.39
12.78
10.90
8.80
6.51
4.14
1.94
0.36
-0.19
0.54
2.40
4.91
7.35
9.00
9.33
8.12
5.37
1.33
-3.62
-8.97
-14.17
-18.67
-22.03
-24.06
-24.77
-24.44
-23.50
-22.37
-21.44
-20.92
-20.90
-21.36
-22.19
-23.26
-24.40
-25.44
-26.20
-26.52
-26.31
-25.54
-24.24
-22.52
-20.51
-18.35
-16.15
-13.98
-11.87
-9.79
-7.62
-5.17
-2.26
1.21
5.18
9.51
14.01
18.42
22.47
25.85
28.30
29.65
29.85
29.16
28.07
27.23
26.95
27.20
27.64
27.86
27.55
26.46
24.57
22.01
19.11
15.90
12.31
8.35
4.22
0.24
-3.53
-7.09
-10.43
-13.34
-16.04
-18.89
-22.22
-26.10
-30.40
-35.18
-40.30
-45.38
-49.52
-52.35
-53.75
-53.68
-52.08
-46.81
-37.32
-25.02
-14.42
-6.77
-2.05
0.61
2.01
2.90
3.80
4.50
4.63
4.05
3.27
2.56
2.09
2.13
2.94
4.60
6.73
8.97
11.24
13.87
16.83
19.83
22.79
25.88
29.38
33.33
37.74
42.52
47.58
52.46
55.08
53.83
48.36
39.69
29.32
18.40
7.59
-2.46
-11.03
-17.38
-21.14
-22.29
-21.33
-19.26
-17.24
-16.23
-16.69
-18.74
-22.27
-26.83
-31.34
-34.84
-36.59
-36.27
-33.91
-29.91
-24.83
-19.26
-12.91
-6.14
0.15
5.03
7.95
8.95
8.41
7.11
5.36
3.40
1.30
-0.80
-2.67
-4.13
-5.08
-5.52
-5.56
-5.49
-5.53
-5.86
-6.40
-6.90
-7.12
-6.97
-6.45
-5.53
-4.19
-2.28
0.41
4.16
9.03
14.53
19.79
23.85
26.12
26.59
25.89
25.12
25.55
28.03
32.56
38.30
43.88
47.84
48.84
45.85
36.61
20.57
-0.18
-21.22
-38.09
-48.27
-51.53
-49.40
-44.91
-39.33
-32.82
-25.21
-16.55
-7.37
1.37
8.85
13.71
14.93
12.54
7.69
2.08
-3.00
-6.72
-9.67
-12.39
-15.03
-17.27
-18.53
-18.29
-16.49
-13.55
-10.13
-6.84
-3.86
-1.14
1.56
4.44
7.51
10.58
13.26
15.06
15.60
14.87
13.06
10.61
8.03
5.72
4.02
2.94
2.32
1.95
1.79
1.90
2.55
3.94
6.23
9.57
13.84
18.75
24.04
29.40
34.50
39.19
43.35
45.45
44.37
39.71
32.07
22.61
12.14
1.07
-9.62
-19.69
-28.61
-35.66
-40.75
-44.32
-46.93
-48.54
-49.33
-49.16
-47.77
-44.93
-39.53
-31.91
-24.67
-18.93
-14.74
-12.28
-11.45
-11.95
-13.22
-14.53
-15.27
-14.87
-12.71
-8.77
-3.71
1.68
6.68
10.79
13.78
15.42
15.73
15.03
13.63
11.64
9.30
7.03
5.12
3.57
2.06
0.30
-1.68
-3.72
-5.63
-7.10
-7.48
-6.31
-3.47
0.78
6.06
12.02
18.35
24.61
30.51
36.45
42.87
49.97
57.44
64.57
70.39
73.95
74.49
69.18
57.34
40.89
23.51
8.24
-4.06
-14.26
-23.35
-32.41
-41.30
-48.69
-53.40
-54.97
-53.90
-50.32
-44.84
-37.23
-28.30
-19.54
-12.35
-7.67
-5.56
-5.15
-5.53
-6.15
-6.84
-7.88
-9.49
-11.32
-12.79
-13.08
-11.53
-7.96
-2.93
2.59
7.29
10.32
11.59
11.67
11.89
13.69
18.06
25.09
34.02
43.36
51.22
55.43
52.16
38.42
13.99
-17.33
-48.92
-74.06
-88.31
-90.45
-82.40
-68.02
-51.16
-34.51
-19.27
-5.67
6.21
16.06
23.39
27.65
28.76
27.56
25.36
23.37
22.32
22.26
22.84
23.53
23.87
23.55
22.59
21.17
18.92
15.54
10.76
4.52
-2.91
-11.00
-18.99
-26.09
-31.69
-35.49
-37.45
-37.82
-36.89
-34.92
-32.12
-28.59
-24.46
-19.88
-15.22
-10.93
-7.62
-5.80
-5.66
-6.85
-8.58
-9.86
-9.88
-8.33
-5.37
-1.54
2.60
6.65
10.42
13.77
16.49
18.21
18.58
17.43
14.98
11.70
8.24
5.06
2.38
0.06
-2.18
-4.61
-7.35
-10.28
-13.17
-15.69
-17.53
-18.41
-18.10
-16.49
-13.60
-9.61
-4.81
0.48
6.02
11.75
17.69
23.83
30.02
35.87
40.82
44.28
45.81
45.26
42.74
38.60
33.33
27.41
21.31
15.38
9.87
4.93
0.59
-3.18
-6.49
-9.41
-12.01
-14.24
-15.95
-16.90
-16.83
-15.60
-13.28
-10.25
-7.10
-4.52
-3.04
-2.84
-3.72
-5.18
-6.65
-7.76
-8.37
-8.63
-8.78
-9.02
-9.41
-9.89
-10.37
-10.80
-11.19
-11.63
-12.23
-13.05
-14.10
-15.30
-16.45
-17.29
-17.53
-16.95
-15.48
-13.24
-10.51
-7.59
-4.73
-2.03
0.47
2.75
4.75
6.34
7.44
8.08
8.50
9.03
10.01
11.68
14.05
16.90
19.81
22.20
23.52
23.37
21.71
18.91
15.69
12.84
11.01
10.45
11.02
12.33
13.96
15.64
17.26
18.77
20.09
21.01
21.29
20.73
19.28
17.03
14.21
11.06
7.82
4.69
1.83
-0.74
-3.12
-5.57
-8.37
-11.71
-15.51
-19.44
-22.94
-25.46
-26.61
-26.25
-24.53
-21.72
-18.18
-14.24
-10.21
-6.40
-3.15
-0.73
0.71
1.19
0.91
0.15
-0.79
-1.73
-2.68
-3.82
-5.39
-7.60
-10.40
-13.50
-16.33
-18.28
-18.91
-18.06
-15.92
-12.93
-9.49
-5.87
-2.09
1.98
6.49
11.48
16.79
22.10
27.03
31.23
34.51
36.83
38.29
39.05
39.23
38.88
37.99
36.51
34.41
31.79
28.85
25.79
22.82
20.08
17.62
15.36
13.16
10.79
8.21
5.46
2.77
0.43
-1.26
-2.13
-2.30
-2.14
-2.20
-2.83
-4.22
-6.26
-8.67
-11.04
-12.95
-14.21
-14.72
-15.40
-16.83
-19.13
-21.97
-24.86
-27.51
-29.68
-31.75
-33.90
-36.09
-37.93
-39.08
-39.14
-38.02
-35.86
-32.86
-29.22
-25.00
-20.20
-14.78
-8.84
-2.64
3.37
8.73
13.06
16.12
17.96
18.79
19.02
19.12
19.44
20.22
21.45
22.96
24.45
25.60
26.13
25.91
25.00
23.53
21.66
19.48
16.99
14.13
10.97
7.70
4.61
2.03
0.11
-1.23
-2.20
-3.07
-3.97
-4.82
-5.39
-5.50
-5.13
-4.57
-4.31
-4.81
-6.32
-8.71
-11.59
-14.40
-16.77
-18.59
-20.02
-21.33
-22.67
-24.04
-25.23
-25.97
-25.99
-25.21
-23.76
-21.94
-19.96
-17.99
-16.07
-14.13
-12.07
-9.67
-6.90
-3.92
-1.09
1.38
3.43
5.09
6.45
7.57
8.60
9.56
10.31
10.64
10.67
10.80
11.49
13.19
16.19
20.73
26.63
32.99
38.52
42.24
43.67
42.93
40.72
36.81
31.84
26.90
23.38
20.61
17.89
14.93
12.20
10.37
9.88
10.77
12.41
13.18
11.53
6.95
-0.11
-8.77
-18.15
-27.64
-36.82
-45.57
-54.57
-64.22
-74.03
-82.81
-89.22
-92.25
-91.37
-86.48
-74.76
-56.44
-34.97
-15.10
-0.10
9.32
14.22
16.12
16.26
15.23
12.75
8.78
4.02
-0.25
-2.90
-3.52
-2.40
-0.24
2.17
3.88
4.46
4.21
3.80
3.76
4.38
5.74
7.88
10.85
14.36
18.17
22.11
26.11
30.13
34.10
37.95
41.57
44.77
47.03
47.87
47.05
44.69
41.20
37.18
33.17
29.54
26.37
23.42
20.40
17.19
13.87
10.64
7.67
4.92
2.25
-0.54
-3.70
-7.30
-11.17
-15.03
-18.59
-21.69
-24.44
-27.04
-29.61
-32.35
-35.23
-37.98
-40.24
-41.76
-42.44
-42.50
-42.23
-40.61
-37.15
-32.10
-26.34
-20.84
-16.80
-14.17
-12.87
-12.78
-13.70
-15.35
-17.29
-18.89
-19.46
-18.52
-15.87
-11.75
-6.56
-0.77
5.08
10.54
15.32
19.28
22.37
24.65
26.12
26.87
27.10
26.98
26.78
26.82
27.31
28.27
29.46
30.35
30.42
29.34
27.02
23.63
19.59
15.39
11.57
8.62
6.90
6.54
7.45
9.31
11.64
14.00
16.03
17.50
18.21
18.02
16.84
14.75
12.00
8.97
6.00
3.17
0.30
-2.96
-6.86
-11.38
-16.18
-20.77
-24.77
-28.05
-30.69
-32.77
-34.18
-34.54
-33.38
-30.44
-25.94
-20.59
-15.31
-10.93
-7.87
-6.14
-5.46
-5.54
-6.23
-7.47
-9.18
-11.14
-12.94
-14.14
-14.44
-13.80
-12.43
-10.68
-8.84
-7.12
-5.54
-4.03
-2.46
-0.62
1.73
4.87
9.06
14.38
20.68
27.44
33.84
38.95
42.02
42.78
41.56
39.15
36.49
34.30
32.87
32.06
31.41
30.52
29.19
27.48
25.53
23.42
21.07
18.34
15.04
11.00
6.23
0.85
-4.92
-10.85
-16.71
-22.27
-27.23
-31.31
-34.35
-36.23
-36.95
-36.60
-35.41
-33.69
-31.72
-29.74
-27.34
-24.49
-21.46
-18.74
-16.72
-15.51
-15.05
-15.23
-15.89
-16.92
-18.24
-19.74
-21.20
-22.43
-23.17
-23.34
-22.91
-21.81
-19.86
-16.84
-12.56
-6.92
-0.08
7.53
15.30
22.63
29.05
34.27
38.13
40.65
42.02
42.51
42.45
42.07
41.48
40.67
39.49
37.78
35.48
32.65
29.43
25.95
22.30
18.57
14.85
11.20
7.76
4.75
2.44
1.06
0.60
0.76
1.13
1.25
0.62
-1.04
-3.65
-6.93
-10.47
-14.12
-17.96
-22.09
-26.55
-31.33
-36.19
-40.62
-44.10
-46.18
-46.94
-46.74
-46.00
-43.69
-39.39
-33.46
-26.91
-21.54
-17.37
-14.09
-11.42
-8.99
-6.57
-4.28
-2.28
-0.62
0.74
2.23
4.12
6.48
9.27
12.54
16.08
19.66
23.05
25.95
28.48
30.64
32.43
33.89
35.34
36.99
38.89
40.94
42.77
44.36
45.62
46.36
44.91
40.48
33.42
25.11
18.12
12.43
7.56
3.11
-1.34
-5.61
-9.06
-11.21
-12.03
-11.97
-11.81
-11.95
-12.48
-13.57
-15.18
-16.98
-18.73
-20.47
-22.52
-25.40
-29.35
-34.27
-40.00
-45.91
-50.86
-53.84
-54.31
-52.41
-48.84
-44.37
-37.85
-29.33
-19.82
-10.85
-3.72
0.97
2.95
2.85
1.38
-0.77
-3.32
-6.08
-8.66
-10.75
-12.11
-12.68
-12.48
-11.62
-10.19
-8.44
-6.44
-4.06
-1.16
2.31
6.19
10.20
14.00
17.35
20.08
22.19
23.81
25.04
25.81
25.94
25.30
23.93
22.15
20.36
19.02
18.44
18.62
19.34
20.21
20.90
21.23
21.16
20.78
20.25
19.72
19.33
19.17
19.21
19.33
19.31
18.84
17.58
15.33
12.03
7.88
3.32
-1.05
-4.59
-6.79
-7.49
-6.99
-5.96
-5.27
-5.62
-7.31
-10.12
-13.40
-16.43
-18.69
-20.09
-20.91
-21.60
-22.50
-23.65
-24.79
-25.53
-25.54
-24.70
-23.09
-20.89
-18.29
-15.35
-11.97
-8.00
-3.34
1.92
7.47
12.79
17.34
20.65
22.55
23.24
23.26
23.28
23.85
25.26
27.43
29.90
31.90
32.66
31.56
28.39
23.33
16.99
10.36
4.60
0.75
-0.78
-0.13
2.22
5.61
9.39
13.06
16.28
18.90
20.82
21.59
20.80
18.31
14.25
8.92
2.56
-4.58
-12.27
-20.29
-28.90
-38.24
-48.08
-57.75
-66.36
-73.10
-77.33
-78.69
-74.48
-63.75
-48.08
-31.01
-15.85
-4.28
3.50
7.99
9.95
10.09
8.42
5.15
0.93
-3.22
-6.37
-8.11
-8.31
-7.24
-5.29
-3.17
-1.25
0.47
2.27
4.34
6.59
8.74
10.52
11.93
13.00
14.10
15.79
18.61
22.80
28.18
34.15
39.91
44.67
47.76
48.91
48.29
46.37
43.66
40.48
36.92
32.90
28.43
23.63
18.76
14.09
9.76
5.65
1.49
-3.03
-7.99
-13.22
-18.27
-22.63
-25.84
-27.69
-28.21
-27.72
-26.64
-25.39
-24.20
-23.09
-21.88
-20.48
-18.89
-17.31
-16.01
-15.21
-14.89
-14.86
-14.77
-14.42
-13.95
-13.63
-13.73
-14.43
-15.77
-17.67
-19.99
-22.48
-24.92
-27.23
-29.12
-30.03
-29.39
-26.83
-22.27
-16.06
-8.68
-0.77
6.73
13.22
18.61
22.95
26.35
28.92
30.82
32.49
34.44
36.66
39.17
41.92
44.57
46.57
47.34
45.07
38.96
31.70
24.59
17.41
10.20
3.06
-3.68
-9.44
-13.56
-15.34
-14.71
-12.70
-10.54
-9.19
-9.12
-10.16
-11.64
-12.73
-12.72
-11.44
-9.59
-7.96
-7.14
-7.47
-8.98
-11.41
-14.31
-17.11
-19.38
-21.15
-22.57
-23.79
-24.88
-25.77
-26.11
-25.51
-23.63
-20.49
-16.55
-12.42
-8.71
-5.81
-3.91
-2.79
-2.07
-1.40
-0.62
0.21
1.03
1.85
2.79
3.96
5.62
7.94
10.82
13.88
16.71
19.10
20.99
22.51
23.80
25.27
27.43
30.68
35.07
40.36
46.05
51.37
55.60
56.40
52.28
43.58
32.41
21.19
11.27
3.21
-3.92
-10.58
-16.64
-21.41
-24.37
-25.16
-24.30
-22.81
-21.61
-21.24
-21.76
-22.85
-23.85
-24.22
-23.87
-23.28
-23.11
-23.77
-25.32
-27.52
-29.93
-31.91
-32.93
-32.76
-31.56
-29.59
-26.98
-22.74
-16.72
-9.85
-3.62
0.77
2.84
2.74
0.96
-1.75
-4.75
-7.56
-9.79
-11.23
-11.85
-11.55
-10.55
-9.08
-7.28
-5.07
-2.04
2.21
7.84
14.60
21.91
28.99
35.24
40.35
44.35
47.70
50.82
53.83
56.59
58.70
59.66
59.08
56.84
51.21
41.90
30.18
18.33
8.18
0.29
-5.96
-11.28
-16.22
-20.58
-23.59
-24.84
-24.47
-23.23
-21.52
-19.98
-19.02
-18.74
-18.91
-18.93
-18.43
-17.36
-16.00
-14.70
-14.04
-14.40
-15.89
-18.30
-21.12
-24.00
-26.71
-29.11
-30.95
-32.13
-32.55
-32.13
-30.91
-28.02
-23.57
-18.47
-14.62
-12.31
-11.23
-10.70
-10.21
-9.47
-8.25
-6.63
-4.68
-2.42
0.23
3.24
6.43
9.51
12.05
13.65
14.00
13.21
11.84
10.88
11.38
14.02
18.88
25.19
31.80
37.54
41.67
43.99
44.81
44.85
44.77
45.06
45.71
46.57
47.48
48.29
48.64
45.71
37.15
21.96
1.43
-21.64
-43.73
-61.65
-73.17
-77.47
-75.23
-67.95
-58.55
-48.06
-37.39
-27.22
-18.14
-10.65
-5.18
-1.99
-0.66
-0.34
0.23
1.42
3.55
6.59
10.13
13.52
16.10
17.69
18.44
18.71
18.60
18.06
16.91
14.94
12.07
8.40
4.48
0.80
-2.23
-4.54
-6.15
-7.12
-7.66
-8.02
-8.53
-9.24
-10.14
-11.00
-11.40
-10.68
-8.15
-3.43
3.50
12.22
22.29
32.91
42.97
51.13
56.22
57.57
55.22
50.14
41.97
31.90
21.91
13.60
7.23
1.93
-2.70
-7.10
-10.95
-13.69
-14.77
-14.25
-12.55
-10.31
-8.23
-6.59
-5.44
-4.76
-4.81
-5.94
-8.70
-13.38
-19.77
-27.29
-34.97
-41.82
-47.15
-50.83
-53.06
-54.24
-54.59
-52.01
-45.34
-34.99
-22.97
-11.65
-2.78
2.91
5.58
5.93
4.91
3.04
0.69
-1.81
-3.98
-5.28
-5.26
-3.74
-0.79
3.21
7.47
11.22
14.04
15.98
17.27
18.03
18.40
18.30
18.00
17.81
18.10
19.19
21.51
25.16
29.74
34.41
38.11
39.80
38.64
34.46
26.82
17.07
7.62
0.34
-4.43
-7.59
-10.06
-12.03
-12.93
-12.24
-9.96
-7.02
-4.98
-5.01
-7.14
-10.48
-13.84
-16.32
-17.77
-18.50
-19.03
-19.96
-21.47
-23.28
-24.93
-26.07
-26.06
-24.88
-22.76
-19.32
-14.66
-9.09
-3.05
2.97
8.45
12.92
16.29
18.42
19.16
18.33
16.07
12.75
8.85
4.59
0.49
-3.03
-5.68
-7.42
-8.48
-9.08
-9.30
-9.10
-8.37
-6.92
-4.68
-1.77
1.54
4.88
8.12
11.37
14.72
18.27
22.09
26.31
31.08
36.61
41.61
44.61
44.23
39.45
30.02
16.59
0.70
-15.39
-29.27
-39.09
-44.56
-46.05
-44.50
-41.17
-37.25
-33.59
-30.59
-28.24
-26.35
-24.60
-22.21
-18.91
-14.73
-9.85
-4.62
0.51
4.92
7.95
9.25
8.96
7.59
5.97
4.95
5.10
6.48
8.65
10.89
12.68
13.78
14.07
13.53
12.22
10.25
7.81
5.11
2.34
-0.13
-2.14
-3.87
-5.71
-7.94
-10.52
-13.02
-14.78
-15.22
-13.67
-9.97
-4.56
1.77
8.27
14.55
20.55
26.35
32.03
37.99
44.37
50.82
56.57
60.78
62.83
62.48
59.94
53.24
42.20
28.60
15.14
3.50
-6.38
-15.52
-24.64
-33.51
-41.35
-46.89
-49.20
-48.30
-45.13
-40.91
-36.66
-32.90
-29.77
-26.94
-24.12
-21.29
-18.71
-16.72
-15.54
-15.12
-15.22
-15.61
-16.20
-16.76
-17.10
-17.16
-17.04
-16.95
-17.04
-17.24
-17.37
-17.13
-16.13
-14.08
-10.98
-7.08
-2.82
1.31
5.13
8.57
11.54
13.95
15.72
16.84
17.35
17.28
16.70
16.02
15.66
15.94
16.94
18.60
20.78
23.34
26.07
28.76
31.62
34.89
38.62
42.61
46.52
50.12
53.26
55.84
55.33
50.19
40.46
27.82
14.34
1.37
-10.54
-21.15
-30.08
-36.98
-41.44
-43.23
-42.73
-40.90
-38.89
-37.48
-36.88
-36.89
-36.64
-35.29
-32.39
-28.11
-23.15
-18.44
-14.76
-12.56
-11.91
-12.53
-13.75
-14.76
-14.94
-13.96
-11.74
-8.47
-4.43
-0.00
4.52
8.90
12.88
16.07
18.02
18.42
17.17
14.45
10.67
6.48
2.52
-0.87
-3.61
-5.78
-7.53
-9.02
-10.46
-12.05
-13.52
-14.40
-14.23
-12.58
-9.12
-3.70
3.49
11.93
20.88
30.03
39.11
47.67
55.13
60.99
64.96
66.93
67.01
62.87
53.58
40.01
24.29
8.54
-5.92
-18.47
-28.71
-36.24
-40.91
-43.19
-43.61
-43.11
-42.55
-42.21
-41.68
-40.14
-36.85
-31.56
-24.29
-14.83
-4.77
3.52
8.20
8.76
6.03
1.49
-3.46
-7.53
-10.47
-12.54
-13.95
-14.75
-14.88
-14.23
-12.84
-10.92
-8.75
-6.70
-5.21
-4.46
-4.25
-4.05
-3.26
-1.46
1.38
4.96
8.73
12.04
14.41
15.58
15.52
14.39
12.50
10.25
8.10
6.43
5.45
5.14
5.30
5.71
6.24
6.94
7.92
9.34
11.20
13.31
15.33
16.77
17.15
16.08
13.37
9.21
4.14
-0.98
-5.19
-7.69
-8.10
-6.63
-3.94
-0.88
1.77
3.61
4.60
5.01
5.11
5.08
4.88
4.38
3.48
2.28
0.97
-0.22
-1.24
-2.35
-3.93
-6.37
-9.83
-14.10
-18.67
-22.90
-26.16
-27.94
-27.91
-25.95
-22.15
-16.85
-10.69
-4.45
1.10
5.37
8.09
9.28
9.17
7.98
5.91
3.12
-0.15
-3.59
-6.79
-9.35
-11.04
-11.78
-11.68
-10.94
-9.69
-8.02
-5.93
-3.41
-0.52
2.66
6.08
9.80
13.97
18.74
24.07
29.64
34.93
39.31
42.35
43.92
44.14
43.28
41.54
38.94
35.41
30.92
25.57
19.64
13.49
7.37
1.44
-4.25
-9.62
-14.45
-18.47
-21.43
-23.29
-24.23
-24.65
-24.93
-25.34
-25.83
-26.18
-26.01
-25.08
-23.29
-20.79
-17.88
-14.85
-11.93
-9.24
-6.79
-4.61
-2.70
-1.13
0.02
0.65
0.67
0.03
-1.25
-3.03
-5.06
-7.03
-8.71
-10.02
-11.14
-12.35
-13.93
-15.91
-18.06
-19.84
-20.65
-19.99
-17.63
-13.60
-8.15
-1.67
5.46
12.82
20.05
26.85
32.96
38.23
42.53
45.68
47.47
47.68
46.21
43.24
39.27
34.95
30.89
27.37
24.24
21.05
17.27
12.58
7.07
1.10
-4.79
-10.09
-14.46
-17.71
-19.77
-20.58
-20.12
-18.39
-15.55
-11.90
-7.93
-4.21
-1.28
0.43
0.69
-0.52
-3.04
-6.59
-10.75
-15.06
-18.96
-21.98
-23.72
-24.01
-22.97
-21.00
-18.72
-16.78
-15.64
-15.49
-16.17
-17.26
-18.22
-18.63
-18.25
-17.12
-15.41
-13.38
-11.25
-9.28
-7.66
-6.48
-5.73
-5.29
-4.96
-4.48
-3.52
-1.84
0.68
3.96
7.86
12.10
16.38
20.33
23.64
26.06
27.40
27.52
26.15
23.45
20.25
17.63
16.07
15.23
14.27
12.52
9.95
6.98
4.32
2.48
1.50
0.98
0.39
-0.61
-2.05
-3.80
-5.26
-6.20
-6.70
-7.07
-7.72
-8.85
-10.41
-12.20
-14.00
-15.77
-17.62
-19.60
-21.60
-23.20
-23.75
-22.68
-19.70
-15.00
-9.18
-3.09
2.38
6.56
9.04
9.68
8.62
6.19
3.00
-0.31
-3.26
-5.66
-7.54
-9.05
-10.32
-11.40
-12.28
-12.80
-12.86
-12.55
-12.02
-11.32
-10.26
-8.52
-5.80
-2.00
2.92
8.88
15.51
22.28
28.63
34.10
38.30
40.97
40.87
37.37
30.96
22.79
13.94
4.91
-4.01
-12.33
-19.12
-23.47
-25.31
-24.78
-22.69
-20.11
-17.87
-16.18
-14.70
-12.95
-10.60
-7.53
-3.70
0.41
4.13
6.88
8.33
8.45
7.52
5.99
4.46
3.52
3.35
3.84
4.71
5.69
6.59
7.29
7.73
7.77
7.29
6.09
4.20
1.88
-0.49
-2.64
-4.48
-6.19
-8.03
-10.14
-12.51
-14.69
-16.02
-15.88
-14.02
-10.56
-5.90
-0.60
4.92
10.30
15.57
20.86
26.27
31.65
36.77
41.45
45.51
48.87
49.53
45.84
37.34
25.34
12.20
0.17
-9.12
-15.94
-20.81
-24.34
-26.82
-28.43
-28.85
-28.06
-26.21
-23.59
-20.57
-17.44
-14.47
-11.60
-8.66
-5.54
-2.49
-0.11
0.91
-0.05
-3.13
-8.03
-13.87
-19.59
-24.19
-27.13
-28.27
-27.86
-26.38
-24.32
-22.20
-20.41
-19.19
-18.66
-18.85
-19.64
-20.75
-21.74
-22.05
-21.12
-18.61
-14.50
-9.20
-3.47
1.88
6.29
9.54
11.80
13.38
14.55
15.41
15.91
16.00
15.71
15.20
14.70
14.41
14.36
14.49
14.64
14.64
14.38
13.82
12.98
11.95
10.89
10.07
9.77
10.28
11.74
14.07
17.00
20.19
23.35
26.34
29.14
31.68
33.74
34.93
34.88
33.40
30.66
27.22
23.79
21.00
19.20
18.45
18.58
19.23
19.82
19.53
17.44
12.84
5.61
-3.54
-13.22
-21.70
-27.61
-30.30
-30.03
-27.66
-24.17
-20.37
-16.83
-13.93
-11.99
-11.18
-11.49
-12.63
-14.22
-15.58
-16.18
-15.81
-14.67
-13.26
-12.16
-11.73
-12.11
-13.25
-14.59
-15.52
-15.61
-14.77
-13.10
-10.73
-7.51
-3.20
2.36
9.54
18.35
28.33
38.51
47.82
55.34
60.82
64.26
63.29
56.42
43.93
28.15
12.10
-1.24
-11.91
-20.23
-26.54
-31.26
-34.09
-34.98
-34.29
-32.70
-31.08
-30.18
-30.14
-30.74
-31.53
-31.59
-30.17
-26.94
-22.26
-16.96
-12.11
-8.31
-5.80
-4.45
-3.70
-3.13
-2.56
-2.12
-2.09
-2.63
-3.55
-4.48
-5.05
-5.04
-4.64
-4.21
-4.04
-4.28
-4.84
-5.45
-5.86
-5.89
-5.62
-5.60
-6.20
-7.45
-9.09
-10.55
-11.14
-10.27
-7.44
-2.64
3.31
9.55
15.43
20.50
24.58
27.77
30.42
33.16
36.47
39.99
43.30
46.06
47.77
47.99
46.43
41.35
32.46
23.38
15.65
8.80
2.51
-3.51
-9.23
-14.22
-17.76
-18.91
-17.34
-14.00
-10.28
-7.36
-5.90
-5.79
-6.28
-6.45
-5.39
-2.80
0.47
3.19
4.23
3.00
-0.34
-5.02
-9.91
-13.66
-15.05
-13.65
-9.67
-3.93
2.29
7.22
8.55
3.98
-7.77
-25.42
-44.74
-60.36
-68.94
-70.25
-66.32
-59.91
-52.95
-46.03
-38.56
-30.07
-21.06
-12.87
-6.97
-2.67
1.60
7.89
17.59
31.09
47.07
62.83
73.75
76.94
72.12
61.06
47.90
34.51
22.31
12.10
4.11
-1.77
-5.65
-7.56
-7.85
-7.08
-6.03
-5.40
-5.82
-7.66
-10.87
-15.09
-19.66
-24.08
-28.02
-31.45
-34.18
-35.95
-36.40
-34.19
-28.69
-20.39
-10.98
-2.52
3.20
5.30
3.77
-0.53
-5.91
-11.19
-15.33
-17.61
-17.71
-15.73
-12.01
-6.97
-0.97
5.32
11.03
15.50
18.41
19.84
20.11
19.74
19.17
18.65
18.14
17.33
15.85
13.47
10.10
5.91
1.26
-3.35
-7.42
-10.66
-13.09
-14.84
-16.04
-16.59
-16.17
-14.29
-10.56
-4.95
2.19
10.16
18.20
25.61
31.89
36.74
39.98
41.65
41.98
41.26
39.80
37.74
34.99
31.29
26.43
20.41
13.42
5.83
-2.01
-9.77
-17.12
-23.72
-29.18
-33.13
-35.26
-35.46
-33.71
-30.35
-26.03
-21.55
-17.73
-15.01
-13.28
-11.91
-10.16
-7.74
-4.99
-2.63
-1.14
-0.39
0.36
1.92
4.59
7.83
10.49
11.50
10.49
8.34
6.42
5.82
6.67
8.32
9.67
9.82
8.34
5.42
2.20
-0.24
-1.09
-0.18
2.36
6.34
11.57
17.79
24.69
32.45
41.18
50.41
59.14
66.25
70.85
72.47
71.14
63.75
49.31
29.60
8.52
-10.40
-25.62
-37.35
-46.36
-53.10
-57.57
-59.42
-57.95
-53.13
-45.89
-37.61
-29.54
-22.47
-16.74
-12.25
-7.96
-3.15
2.46
8.58
14.42
18.61
19.48
16.56
9.46
-0.98
-12.93
-24.39
-33.89
-40.17
-42.31
-40.12
-34.34
-26.82
-19.71
-14.88
-13.28
-14.45
-16.58
-17.49
-15.78
-11.29
-5.17
1.26
7.01
11.67
15.04
17.22
18.05
17.33
15.16
12.10
9.35
8.08
8.78
10.79
13.15
14.70
14.68
13.07
10.60
8.76
8.93
11.68
16.41
22.01
27.09
30.30
30.79
27.17
19.56
9.74
1.27
-4.91
-9.07
-11.91
-14.02
-15.82
-17.56
-19.06
-20.17
-20.86
-21.36
-21.49
-20.54
-18.25
-15.24
-12.56
-10.94
-10.49
-11.00
-12.27
-14.06
-16.18
-18.52
-20.88
-22.80
-23.52
-22.16
-18.41
-12.74
-5.96
0.99
7.31
12.57
16.81
20.37
23.44
25.82
26.99
26.56
24.53
21.29
17.47
13.77
10.61
8.07
5.90
3.74
1.36
-1.17
-3.65
-5.80
-7.39
-8.33
-8.59
-8.18
-7.00
-4.90
-1.69
2.68
8.10
14.31
20.97
27.67
33.91
39.13
42.65
43.88
42.48
38.50
32.43
25.06
17.21
9.63
2.87
-2.70
-6.93
-9.90
-12.03
-14.02
-16.67
-20.60
-26.01
-32.51
-39.21
-44.96
-48.67
-49.62
-47.61
-43.08
-36.98
-30.52
-24.80
-20.47
-17.55
-15.43
-13.28
-10.40
-6.62
-2.29
1.93
5.44
7.87
9.24
9.77
9.72
9.23
8.31
6.96
5.33
3.67
2.25
1.17
0.36
-0.40
-1.30
-2.31
-3.18
-3.33
-2.26
0.32
4.28
9.18
14.38
19.32
23.52
26.64
28.60
29.49
29.53
29.15
28.89
29.25
30.51
32.52
33.52
31.84
26.55
18.02
7.50
-3.66
-14.47
-24.17
-32.36
-38.36
-41.28
-40.72
-37.05
-31.45
-24.74
-18.20
-12.69
-8.25
-4.83
-2.21
-0.30
0.71
0.53
-0.94
-3.57
-6.85
-10.35
-13.70
-16.64
-18.90
-20.26
-20.52
-19.46
-16.91
-13.24
-9.17
-5.45
-2.36
0.27
2.94
6.03
9.46
12.67
15.01
16.16
16.35
16.24
16.39
16.88
17.29
17.00
15.63
13.35
10.72
8.40
6.78
5.83
5.25
4.70
4.09
3.52
3.28
3.62
4.69
6.57
9.27
12.77
16.91
21.33
25.45
28.60
30.27
30.34
29.11
27.03
24.50
21.63
18.32
14.46
10.20
5.97
2.26
-0.72
-3.29
-6.05
-9.57
-13.79
-18.00
-21.33
-23.27
-24.20
-25.34
-27.84
-32.02
-36.97
-41.05
-42.92
-42.33
-40.18
-37.85
-36.15
-34.81
-32.79
-29.13
-23.62
-16.93
-9.99
-3.40
2.67
8.31
12.99
15.77
15.55
11.91
5.60
-1.61
-7.64
-11.09
-11.68
-10.28
-8.47
-7.68
-8.62
-11.10
-14.12
-16.33
-16.61
-14.35
-9.75
-3.48
3.65
11.09
18.60
26.11
33.51
40.30
45.78
49.23
50.26
48.94
45.71
41.38
36.62
31.99
27.69
23.72
19.91
16.12
12.28
8.40
4.52
0.67
-3.16
-6.90
-10.30
-13.02
-14.65
-14.84
-13.40
-10.43
-6.39
-2.08
1.47
3.25
2.61
-0.54
-5.62
-11.52
-17.04
-21.25
-23.74
-24.59
-24.14
-22.78
-20.80
-18.48
-16.05
-13.82
-12.20
-11.56
-12.07
-13.59
-15.70
-17.77
-19.19
-19.42
-18.23
-15.80
-12.55
-8.99
-5.42
-1.90
1.55
4.95
8.35
11.60
14.38
16.35
17.33
17.55
17.51
17.74
18.67
20.63
23.67
27.43
31.34
34.66
36.88
37.72
37.10
34.06
28.52
21.60
14.97
10.33
7.26
4.90
2.75
0.74
-0.80
-1.41
-1.03
-0.07
0.68
0.46
-1.12
-3.87
-7.11
-10.08
-12.23
-13.70
-15.23
-17.81
-22.30
-29.09
-37.66
-46.74
-54.64
-59.80
-61.23
-58.65
-52.43
-41.41
-26.48
-10.49
3.12
12.16
16.22
16.09
12.98
8.33
3.03
-2.40
-7.31
-11.00
-12.86
-12.76
-11.10
-8.29
-4.94
-1.56
1.36
3.63
5.44
7.29
9.60
12.48
15.79
19.20
22.38
24.97
26.86
28.33
30.04
32.53
35.91
39.86
43.76
46.91
48.70
48.68
45.15
37.43
26.06
12.80
-0.27
-11.48
-19.76
-24.62
-26.65
-26.46
-24.50
-21.40
-17.98
-15.02
-13.13
-12.59
-13.09
-14.14
-15.11
-15.23
-14.11
-11.96
-9.40
-7.02
-5.09
-3.39
-1.50
0.78
3.02
4.21
3.42
0.56
-3.36
-6.79
-8.61
-8.91
-8.83
-9.71
-12.23
-15.94
-19.58
-22.02
-23.10
-23.60
-24.54
-26.24
-27.98
-28.46
-26.54
-21.74
-14.51
-5.90
2.95
11.14
18.19
23.97
28.53
31.92
34.43
36.44
38.26
40.06
41.92
43.85
45.75
47.45
47.00
42.89
34.80
23.87
11.93
0.66
-8.64
-15.94
-21.08
-23.85
-24.01
-21.76
-17.37
-11.94
-6.74
-2.77
-0.51
0.19
-0.24
-1.12
-1.91
-2.36
-2.68
-3.27
-4.52
-6.70
-9.67
-13.06
-16.18
-18.43
-19.59
-19.92
-19.98
-20.25
-20.79
-21.23
-20.91
-19.21
-15.78
-10.54
-3.66
4.39
12.65
19.54
23.18
22.27
16.82
8.36
-0.64
-7.78
-11.77
-12.70
-11.77
-10.32
-8.85
-7.04
-4.35
-0.69
3.34
6.77
8.90
9.61
9.39
9.37
10.67
13.95
19.15
25.55
32.05
37.59
41.20
41.22
36.96
29.35
20.77
13.46
8.38
4.41
0.32
-4.44
-9.75
-14.58
-17.98
-19.67
-20.17
-20.41
-21.09
-22.20
-23.24
-23.56
-22.67
-20.70
-18.37
-16.70
-16.55
-18.17
-21.01
-24.09
-26.33
-26.85
-25.30
-21.98
-17.60
-13.02
-8.84
-5.24
-2.04
0.92
3.58
5.64
6.63
6.36
4.97
2.96
0.98
-0.42
-1.04
-1.16
-1.32
-2.06
-3.49
-5.38
-7.31
-8.73
-8.89
-7.24
-3.67
1.45
7.38
13.51
19.32
24.45
28.72
32.47
36.13
39.92
43.69
46.93
49.27
50.31
49.62
45.19
36.31
24.24
11.77
2.12
-4.80
-9.97
-14.39
-18.50
-22.21
-24.86
-25.78
-24.76
-22.20
-18.95
-15.56
-12.41
-9.64
-7.31
-5.19
-3.11
-1.16
0.24
0.53
-0.53
-2.99
-6.68
-11.30
-16.17
-20.53
-23.79
-25.69
-26.29
-25.76
-24.31
-22.18
-19.64
-16.86
-13.96
-11.12
-8.56
-6.46
-4.81
-3.46
-2.13
-0.66
0.95
2.68
4.35
5.75
6.69
7.13
7.17
7.13
7.35
8.04
9.48
11.74
14.61
17.67
20.32
22.06
22.83
22.74
22.06
21.40
21.32
22.21
24.23
27.25
30.92
34.96
38.84
40.48
38.22
31.45
21.20
9.54
-1.03
-10.14
-17.83
-24.49
-30.67
-36.06
-40.28
-42.99
-43.96
-43.35
-41.55
-37.89
-32.57
-26.72
-21.72
-18.73
-18.56
-20.73
-24.43
-28.73
-32.48
-34.26
-33.20
-28.93
-21.86
-12.90
-3.15
6.25
14.40
20.82
25.15
27.11
26.77
24.49
21.11
17.58
14.60
12.44
11.06
10.09
9.00
7.43
5.24
2.86
0.91
-0.18
-0.24
0.78
2.86
5.95
10.14
15.41
22.04
30.10
39.14
48.23
56.30
62.37
65.77
66.26
61.50
50.72
35.33
18.45
3.08
-9.17
-17.95
-24.40
-29.20
-32.67
-34.59
-34.99
-33.88
-31.96
-30.04
-28.61
-27.72
-26.97
-25.92
-24.03
-21.11
-17.43
-13.67
-10.45
-8.18
-7.00
-6.82
-7.57
-8.99
-10.79
-12.67
-14.42
-15.81
-16.67
-16.99
-16.71
-15.89
-14.59
-12.93
-11.17
-9.64
-8.64
-8.36
-8.78
-9.51
-10.06
-9.98
-9.13
-7.64
-5.67
-3.39
-0.91
1.68
4.63
8.16
12.29
16.82
21.27
25.41
29.13
32.36
35.06
37.54
40.11
42.91
45.82
48.36
50.35
51.59
51.77
48.71
41.26
30.02
17.30
6.76
-1.05
-6.50
-10.20
-12.70
-14.28
-14.80
-14.11
-12.31
-9.86
-7.61
-6.10
-5.64
-6.38
-8.29
-10.94
-13.83
-16.65
-19.33
-22.09
-24.89
-27.64
-30.24
-32.69
-34.87
-36.65
-37.94
-38.68
-38.87
-38.30
-36.78
-34.26
-30.82
-26.57
-21.67
-16.32
-10.78
-5.41
-0.57
3.42
6.33
8.04
8.67
8.45
7.62
6.40
4.94
3.38
1.89
0.70
0.03
0.02
0.70
1.91
3.44
5.11
6.90
8.95
11.53
14.87
19.05
23.94
29.28
34.70
39.86
44.35
47.71
49.41
48.97
46.14
41.08
34.41
27.05
19.97
13.88
9.10
5.55
2.99
1.14
-0.23
-1.35
-2.51
-4.05
-6.25
-9.13
-12.39
-15.41
-17.58
-18.51
-18.21
-17.06
-15.57
-14.17
-13.06
-12.29
-11.84
-11.79
-12.29
-13.46
-15.25
-17.44
-19.68
-21.62
-23.07
-23.98
-24.40
-24.36
-23.80
-22.62
-20.80
-18.49
-15.96
-13.54
-11.44
-9.67
-8.04
-6.28
-4.17
-1.71
0.97
3.58
5.87
7.65
8.88
9.59
9.87
9.85
9.64
9.38
9.21
9.28
9.67
10.40
11.43
12.70
14.22
16.03
18.13
20.36
22.31
23.38
23.06
21.16
17.97
14.25
10.91
8.68
7.89
8.32
9.40
10.35
10.49
9.30
6.58
2.42
-2.85
-8.69
-14.54
-19.94
-24.56
-28.24
-30.92
-32.55
-33.14
-32.76
-31.59
-29.94
-28.18
-26.61
-25.44
-24.66
-24.09
-23.41
-22.21
-20.15
-17.01
-12.85
-7.96
-2.81
2.08
6.32
9.68
12.19
14.03
15.39
16.38
16.97
16.97
16.20
14.58
12.29
9.71
7.30
5.35
3.88
2.58
1.06
-0.88
-3.09
-5.09
-6.23
-5.99
-4.17
-0.84
3.72
9.19
15.19
21.30
27.03
31.83
35.33
37.50
38.70
39.52
40.37
41.22
41.47
40.24
36.83
31.16
23.86
16.10
9.08
3.57
-0.26
-2.82
-4.71
-6.46
-8.32
-10.26
-12.10
-13.62
-14.63
-14.98
-14.50
-13.09
-10.76
-7.76
-4.62
-2.07
-0.81
-1.37
-3.81
-7.76
-12.48
-17.12
-21.02
-23.84
-25.63
-26.70
-27.48
-28.36
-29.59
-31.27
-33.29
-35.33
-36.88
-37.29
-35.98
-32.61
-27.27
-20.51
-13.17
-6.15
-0.14
4.54
7.87
10.05
11.30
11.79
11.64
10.98
9.98
8.91
7.98
7.38
7.16
7.34
7.87
8.68
9.65
10.62
11.45
12.10
12.67
13.33
14.33
15.83
17.84
20.30
23.08
26.09
29.23
32.32
35.06
37.01
37.74
36.93
34.49
30.58
25.57
19.92
14.09
8.44
3.20
-1.52
-5.79
-9.81
-13.86
-18.15
-22.71
-27.24
-31.14
-33.57
-33.70
-31.14
-26.16
-19.82
-13.62
-9.05
-7.02
-7.56
-9.81
-12.36
-14.00
-14.11
-12.86
-10.82
-8.61
-6.54
-4.56
-2.43
0.13
3.02
5.84
8.17
9.94
11.57
13.78
17.25
22.31
29.01
36.67
44.24
50.50
54.51
55.87
54.65
51.30
45.94
39.57
33.61
29.24
26.65
24.63
22.31
19.41
15.99
12.11
8.68
6.07
4.34
3.35
2.79
2.37
1.61
0.01
-2.69
-6.21
-10.08
-13.68
-16.52
-18.36
-19.17
-19.18
-18.74
-18.13
-17.40
-16.65
-15.93
-15.34
-14.89
-14.54
-14.22
-13.93
-13.73
-13.65
-13.83
-14.34
-15.20
-16.19
-16.83
-16.52
-14.86
-11.84
-8.04
-4.39
-1.88
-1.06
-1.92
-3.97
-6.64
-9.47
-12.14
-14.35
-15.56
-15.18
-12.84
-8.81
-4.00
0.37
3.31
4.58
4.61
4.14
3.69
3.35
2.75
1.43
-0.98
-4.53
-9.08
-14.31
-19.72
-24.61
-28.29
-30.36
-31.06
-31.35
-32.47
-35.29
-39.79
-44.97
-49.27
-51.40
-51.00
-48.64
-45.51
-42.68
-40.57
-38.95
-37.20
-34.80
-31.62
-27.99
-24.51
-21.81
-20.27
-19.98
-20.75
-22.07
-23.25
-23.46
-21.92
-18.12
-11.99
-3.98
5.16
14.54
23.48
31.60
38.71
44.70
49.30
52.06
52.56
50.59
46.30
40.18
32.93
25.25
17.77
10.82
4.35
-2.07
-9.03
-16.79
-24.81
-31.73
-35.85
-35.95
-32.13
-25.86
-19.34
-14.52
-12.10
-11.39
-10.74
-8.55
-4.09
2.19
8.97
14.63
17.98
18.60
16.94
14.02
11.04
8.90
7.87
7.67
7.71
7.46
6.78
5.86
5.08
4.69
4.76
5.12
5.58
6.02
6.52
7.32
8.74
10.94
13.85
17.07
20.00
21.96
22.44
21.24
18.54
14.81
10.62
6.51
2.86
-0.23
-2.85
-5.29
-7.85
-10.74
-13.93
-17.06
-19.49
-20.51
-19.52
-16.31
-11.10
-4.45
2.92
10.34
17.24
23.17
27.69
30.40
31.03
29.56
26.30
21.88
17.01
12.24
7.87
3.89
0.08
-3.79
-7.92
-12.37
-17.10
-21.95
-26.60
-30.54
-33.12
-33.70
-31.84
-27.44
-20.89
-12.91
-4.40
3.80
11.15
17.43
22.66
26.95
30.40
32.99
34.63
35.27
34.93
33.81
32.16
30.31
28.49
26.94
25.82
25.20
24.97
24.86
24.56
23.92
23.10
22.48
22.76
24.67
28.73
34.90
42.63
50.80
57.95
62.39
62.49
57.30
46.85
32.22
15.16
-2.31
-18.43
-32.08
-42.97
-51.54
-58.28
-63.43
-66.90
-68.43
-67.71
-64.54
-58.85
-50.23
-39.49
-28.30
-18.42
-10.93
-6.14
-4.06
-4.47
-6.90
-9.83
-12.91
-15.73
-17.96
-19.53
-20.64
-21.63
-22.67
-23.64
-24.67
-25.73
-26.57
-26.96
-26.79
-26.15
-25.29
-24.45
-23.67
-22.72
-21.19
-18.37
-13.67
-6.97
1.23
9.88
17.86
24.36
29.05
32.10
33.94
34.97
35.36
35.01
33.76
31.54
28.49
24.86
20.97
17.05
13.23
9.50
5.80
2.06
-1.69
-5.33
-8.69
-11.52
-13.53
-14.39
-13.84
-11.72
-8.14
-3.47
1.72
6.84
11.55
15.83
19.99
24.31
28.84
33.14
36.43
37.82
36.72
33.09
27.42
20.56
13.39
6.61
0.63
-4.36
-8.33
-11.26
-13.14
-13.96
-13.72
-12.55
-10.64
-8.32
-5.92
-3.73
-1.91
-0.46
0.72
1.70
2.48
2.95
3.01
2.60
1.78
0.68
-0.62
-2.08
-3.68
-5.41
-7.19
-8.90
-10.49
-11.99
-13.56
-15.34
-17.32
-19.22
-20.49
-20.49
-18.71
-15.06
-9.90
-4.01
1.74
6.67
10.45
13.13
14.93
16.06
16.61
16.52
15.75
14.37
12.63
10.78
9.05
7.52
6.16
4.92
3.76
2.59
1.28
-0.39
-2.55
-5.10
-7.58
-9.19
-9.08
-6.63
-1.70
5.26
13.45
21.88
29.61
35.78
39.67
40.69
38.55
33.44
26.05
17.58
9.43
2.87
-1.34
-3.13
-3.05
-2.09
-1.31
-1.57
-3.29
-6.43
-10.59
-15.09
-19.20
-22.23
-23.71
-23.43
-21.53
-18.44
-14.77
-11.15
-8.10
-5.91
-4.66
-4.27
-4.55
-5.33
-6.41
-7.65
-8.94
-10.28
-11.73
-13.41
-15.44
-17.83
-20.47
-23.09
-25.34
-26.86
-27.36
-26.70
-24.87
-21.97
-18.19
-13.75
-8.89
-3.89
0.97
5.38
9.11
12.06
14.22
15.78
16.91
17.78
18.48
19.02
19.39
19.60
19.68
19.63
19.44
19.10
18.67
18.33
18.38
19.15
20.80
23.24
26.08
28.74
30.60
31.20
30.37
28.19
24.94
20.97
16.64
12.32
8.37
5.12
2.81
1.46
0.78
0.20
-1.00
-3.39
-7.15
-12.00
-17.33
-22.42
-26.75
-30.17
-32.82
-34.96
-36.80
-38.33
-39.37
-39.66
-39.00
-37.32
-34.72
-31.36
-27.48
-23.29
-19.00
-14.86
-11.11
-8.01
-5.75
-4.40
-3.85
-3.81
-3.88
-3.67
-2.96
-1.72
-0.15
1.39
2.55
3.05
2.83
1.98
0.79
-0.41
-1.25
-1.45
-0.80
0.76
3.17
6.25
9.76
13.45
17.14
20.67
23.84
26.39
28.00
28.37
27.46
25.54
23.23
21.32
20.51
21.14
23.09
25.75
28.26
29.75
29.55
27.33
23.21
17.64
11.36
5.21
-0.04
-3.81
-5.91
-6.59
-6.45
-6.33
-7.00
-8.98
-12.36
-16.82
-21.71
-26.21
-29.59
-31.34
-31.42
-30.15
-28.13
-25.98
-24.08
-22.58
-21.56
-21.38
-22.61
-25.70
-30.37
-35.44
-39.16
-40.04
-37.48
-32.02
-24.94
-17.48
-10.29
-3.22
4.06
11.46
18.23
23.41
26.43
27.46
27.42
27.33
27.99
29.52
31.45
33.04
33.69
33.28
32.01
30.36
28.70
27.48
27.06
27.70
29.41
32.11
35.61
39.53
43.58
45.42
43.20
36.37
26.17
14.61
3.44
-5.77
-13.23
-19.13
-23.56
-26.44
-27.81
-27.58
-26.09
-23.95
-21.71
-19.90
-18.75
-18.40
-18.63
-19.06
-19.32
-19.22
-18.74
-17.92
-16.90
-15.76
-14.60
-13.48
-12.45
-11.64
-11.25
-11.42
-12.10
-13.18
-14.37
-15.43
-16.15
-16.36
-15.99
-15.08
-13.72
-12.03
-10.15
-8.14
-6.04
-3.82
-1.42
1.13
3.74
6.23
8.39
10.06
11.14
11.63
11.58
11.08
10.29
9.43
8.68
8.22
8.10
8.29
8.66
9.03
9.24
9.19
8.89
8.42
7.96
7.68
7.72
8.13
8.84
9.68
10.48
11.18
11.83
12.59
13.66
15.16
17.05
19.11
21.04
22.45
23.07
22.73
21.40
19.20
16.30
12.90
9.20
5.34
1.43
-2.41
-6.09
-9.50
-12.58
-15.32
-17.82
-20.20
-22.60
-25.05
-27.45
-29.58
-31.16
-31.93
-31.74
-30.62
-28.73
-26.38
-23.87
-21.50
-19.41
-17.61
-15.99
-14.41
-12.80
-11.23
-9.87
-8.95
-8.61
-8.84
-9.50
-10.32
-11.08
-11.73
-12.36
-13.18
-14.44
-16.24
-18.38
-20.39
-21.59
-21.30
-19.17
-15.21
-9.82
-3.69
2.42
7.87
12.17
15.08
16.98
18.04
18.53
18.88
19.48
20.61
22.32
24.44
26.69
28.79
30.43
31.45
31.95
31.78
30.82
29.00
26.43
23.45
20.53
18.16
16.70
16.23
16.47
16.87
16.93
16.15
14.31
11.50
7.98
4.14
0.36
-3.17
-6.52
-9.90
-13.49
-17.22
-20.80
-23.77
-25.68
-26.22
-25.45
-23.85
-22.22
-21.17
-20.90
-21.08
-20.99
-19.70
-16.25
-9.95
-0.84
10.21
21.71
31.67
37.95
38.63
32.31
19.32
2.74
-12.76
-23.33
-27.23
-24.86
-17.91
-8.61
0.85
8.95
14.93
18.66
19.95
19.62
18.51
17.38
16.82
17.01
18.01
19.69
21.68
23.37
24.24
23.89
22.18
20.09
18.28
17.23
17.06
17.42
17.64
17.16
15.63
13.16
10.15
6.98
3.97
1.33
-0.97
-3.06
-5.08
-7.10
-9.06
-10.79
-12.29
-13.60
-14.75
-15.77
-16.65
-17.56
-18.60
-19.73
-20.84
-21.93
-22.99
-23.97
-24.71
-25.04
-25.33
-25.94
-26.88
-27.93
-28.86
-29.59
-30.12
-30.48
-30.67
-31.48
-33.40
-36.20
-39.14
-41.44
-42.70
-42.84
-42.06
-40.68
-40.15
-41.45
-44.47
-48.20
-51.62
-54.31
-56.50
-58.82
-55.25
-43.03
-23.96
-2.89
16.34
32.34
45.08
54.86
62.07
67.26
70.14
70.76
69.95
68.73
67.76
67.07
66.33
65.19
63.37
59.87
54.01
45.76
35.86
25.71
16.87
10.82
8.58
10.19
14.10
18.19
20.71
20.88
18.86
15.31
10.91
6.07
0.92
-4.72
-10.63
-16.02
-19.84
-21.40
-20.82
-18.97
-17.00
-15.84
-15.98
-17.23
-19.01
-20.63
-21.74
-22.33
-22.67
-23.02
-23.43
-23.70
-23.47
-22.42
-20.40
-17.55
-14.22
-10.78
-7.53
-4.62
-2.06
0.19
2.14
3.79
5.10
6.07
6.74
7.20
7.51
7.73
7.88
7.96
8.01
8.07
8.18
8.34
8.55
8.76
8.89
8.90
8.77
8.52
8.21
7.88
7.53
7.10
6.52
5.72
4.73
3.67
2.72
2.00
1.52
1.21
0.95
0.63
0.26
-0.12
-0.42
-0.59
-0.61
-0.57
-0.58
-0.81
-1.37
-2.29
-3.45
-4.68
-5.81
-6.71
-7.35
-7.76
-7.93
-7.81
-7.31
-6.39
-5.12
-3.64
-2.05
-0.32
1.69
4.09
6.77
9.36
11.29
12.02
11.31
9.34
6.56
3.53
0.69
-1.76
-3.78
-5.35
-6.44
-6.99
-7.02
-6.74
-6.54
-6.81
-7.81
-9.53
-11.67
-13.74
-15.24
-15.81
-15.32
-13.85
-11.63
-8.92
-5.92
-2.71
0.70
4.31
8.00
11.48
14.36
16.22
16.81
16.11
14.44
12.34
10.41
9.14
8.70
8.97
9.48
9.71
9.18
7.69
5.39
2.67
0.07
-1.94
-3.07
-3.35
-2.99
-2.31
-1.62
-1.12
-0.87
-0.82
-0.90
-1.05
-1.24
-1.48
-1.74
-1.94
-1.98
-1.73
-1.06
0.05
1.54
3.25
4.92
6.25
7.02
7.12
6.62
5.71
4.66
3.71
3.06
2.80
2.91
3.28
3.76
4.20
4.48
4.54
4.38
3.98
3.28
2.13
0.36
-2.16
-5.31
-8.75
-11.90
-14.19
-15.25
-15.04
-13.92
-12.43
-11.09
-10.19
-9.72
-9.42
-8.87
-7.70
-5.62
-2.56
1.37
5.85
10.46
14.76
18.32
20.84
22.06
21.85
20.17
17.17
13.20
8.81
4.63
1.20
-1.20
-2.58
-3.26
-3.72
-4.44
-5.76
-7.78
-10.34
-13.08
-15.54
-17.27
-17.92
-17.30
-15.41
-12.40
-8.58
-4.36
-0.23
3.36
6.03
7.59
8.04
7.60
6.61
5.50
4.67
4.39
4.73
5.52
6.35
6.69
6.08
4.30
1.49
-1.85
-5.04
-7.42
-8.53
-8.28
-6.94
-4.99
-2.95
-1.20
0.11
0.99
1.51
1.67
1.33
0.28
-1.64
-4.38
-7.59
-10.76
-13.35
-15.03
-15.76
-15.74
-15.28
-14.65
-13.96
-13.20
-12.27
-11.01
-9.25
-6.83
-3.72
-0.09
3.65
6.94
9.28
10.37
10.22
9.02
6.99
4.22
0.69
-3.56
-8.32
-13.09
-17.32
-20.58
-22.77
-24.16
-25.21
-26.39
-27.99
-30.07
-32.50
-35.01
-37.18
-38.48
-38.30
-36.01
-31.18
-23.76
-14.14
-3.14
8.23
19.02
28.44
35.88
40.86
43.00
42.14
38.51
32.85
26.24
19.85
14.48
10.32
6.96
3.71
0.01
-4.41
-9.38
-14.53
-19.31
-23.19
-25.62
-26.13
-24.31
-20.05
-13.69
-5.91
2.40
10.39
17.48
23.21
27.35
29.85
30.72
29.98
27.75
24.37
20.40
16.54
13.22
10.65
8.97
8.06
7.53
6.84
5.51
3.34
0.44
-3.13
-7.11
-10.86
-13.87
-16.07
-17.91
-20.04
-23.09
-27.38
-33.37
-41.10
-49.67
-57.84
-64.54
-69.08
-71.07
-70.39
-64.27
-52.20
-36.42
-20.13
-5.87
5.09
12.43
16.40
17.75
17.60
17.69
18.17
19.36
21.24
23.40
25.22
26.27
26.55
26.44
26.36
24.78
21.87
18.22
14.47
11.04
8.14
5.73
3.59
1.18
-2.05
-5.82
-9.62
-12.88
-15.12
-16.04
-15.56
-13.84
-11.33
-8.57
-5.66
-2.61
0.63
4.10
7.83
11.79
15.82
19.55
22.43
24.04
24.05
22.33
19.07
14.70
9.76
4.67
-0.28
-5.04
-9.55
-13.78
-17.68
-21.19
-24.17
-26.45
-27.87
-28.23
-27.31
-24.87
-20.83
-15.33
-8.77
-1.68
5.30
11.54
16.47
19.78
21.39
21.47
20.34
18.44
16.35
14.57
13.35
12.64
12.23
11.89
11.43
10.70
9.67
8.83
8.73
9.69
11.75
14.82
18.81
23.62
28.99
34.52
40.65
47.62
55.09
62.07
67.51
70.82
71.93
71.18
69.07
67.59
68.34
71.68
76.63
81.64
85.59
87.93
88.73
88.42
89.54
94.33
103.48
115.75
128.99
141.30
151.36
158.37
150.44
121.38
74.21
20.29
-28.32
-65.18
-89.72
-104.59
-113.27
-118.11
-119.38
-116.48
-109.72
-100.93
-92.55
-86.41
-83.30
-83.08
-85.00
-86.67
-85.96
-82.16
-76.11
-69.24
-62.65
-56.79
-51.69
-47.29
-42.67
-37.22
-31.09
-25.22
-20.66
-18.00
-17.21
-17.83
-19.24
-20.37
-20.37
-18.94
-16.41
-13.46
-10.76
-8.80
-7.81
-7.68
-7.86
-7.60
-6.36
-3.98
-0.73
2.83
6.08
8.53
9.99
10.48
10.16
9.16
7.51
5.18
2.21
-1.28
-5.01
-8.64
-11.92
-14.67
-16.93
-18.79
-20.35
-21.69
-22.80
-23.65
-24.14
-24.18
-23.61
-22.29
-20.10
-16.95
-12.95
-8.36
-3.63
0.77
4.45
7.22
9.02
9.96
10.34
10.46
10.55
10.74
11.03
11.34
11.45
11.18
10.38
9.25
8.08
7.21
6.90
7.36
8.76
11.18
14.58
18.70
23.28
27.84
31.73
34.32
35.28
34.66
32.87
30.45
26.56
21.00
14.14
6.91
0.27
-5.06
-8.67
-10.46
-10.69
-9.90
-8.53
-6.95
-5.29
-3.48
-1.29
1.42
4.52
7.64
10.35
12.43
13.83
14.60
14.82
14.54
13.76
12.35
10.15
7.16
3.65
-0.02
-3.51
-6.64
-9.36
-11.78
-14.12
-16.53
-19.04
-21.50
-23.63
-25.12
-25.70
-25.22
-23.61
-20.97
-17.52
-13.60
-9.55
-5.73
-2.44
0.06
1.58
1.98
1.23
-0.54
-3.02
-5.76
-8.27
-10.14
-11.17
-11.37
-11.00
-10.42
-9.98
-9.99
-10.55
-11.50
-12.48
-12.96
-12.42
-10.58
-7.46
-3.43
0.95
5.13
8.69
11.45
13.37
14.47
14.78
14.32
13.19
11.57
9.70
7.84
6.11
4.53
3.00
1.38
-0.40
-2.33
-4.28
-6.02
-7.23
-7.58
-6.83
-4.99
-2.28
0.87
4.00
6.78
9.10
10.99
12.53
13.70
14.40
14.50
13.98
12.96
11.70
10.41
9.23
8.12
6.92
5.41
3.43
0.90
-2.07
-5.23
-8.20
-10.59
-12.14
-12.80
-12.75
-12.26
-11.64
-11.12
-10.86
-10.93
-11.32
-11.92
-12.58
-13.12
-13.37
-13.23
-12.69
-11.95
-11.26
-10.92
-11.09
-11.80
-13.00
-14.47
-15.86
-16.85
-17.19
-16.79
-15.59
-13.53
-10.55
-6.72
-2.14
3.01
8.38
13.57
18.19
21.96
24.53
25.83
24.98
20.72
12.48
1.17
-10.74
-20.20
-24.79
-23.59
-17.46
-8.47
1.17
9.93
17.14
22.66
26.63
29.15
30.31
30.30
29.41
27.99
26.61
25.70
25.31
25.26
25.23
24.88
23.98
22.49
20.58
18.70
17.31
16.61
16.63
17.15
17.83
18.23
17.96
16.76
14.43
11.88
9.49
7.48
5.93
4.82
4.02
3.40
2.85
2.25
1.56
0.58
-0.72
-2.27
-3.89
-5.34
-6.37
-6.84
-6.73
-6.13
-5.37
-4.72
-4.43
-4.62
-5.30
-6.38
-7.69
-9.01
-10.09
-10.80
-11.01
-10.70
-9.97
-9.00
-7.98
-7.11
-6.47
-6.09
-6.03
-6.29
-6.87
-7.69
-8.56
-9.27
-9.65
-9.62
-9.26
-8.76
-8.31
-8.08
-8.10
-8.32
-8.57
-8.67
-8.45
-7.83
-6.86
-5.70
-4.60
-3.75
-3.27
-3.12
-3.18
-3.31
-3.41
-3.44
-3.39
-3.20
-2.81
-2.13
-1.12
0.15
1.48
2.64
3.41
3.72
3.64
3.35
3.02
2.74
2.50
2.22
1.85
1.41
0.97
0.60
0.29
-0.04
-0.48
-1.04
-1.62
-2.08
-2.27
-2.18
-1.90
-1.60
-1.41
-1.44
-1.75
-2.37
-3.29
-4.43
-5.57
-6.42
-6.73
-6.36
-5.36
-3.97
-2.48
-1.15
-0.14
0.50
0.84
1.05
1.33
1.88
2.75
3.85
4.94
5.79
6.26
6.42
6.43
6.46
6.50
6.37
5.73
4.26
1.67
-2.11
-6.95
-12.48
-17.99
-22.56
-25.28
-25.57
-23.45
-19.67
-15.39
-11.78
-9.56
-8.79
-9.02
-9.65
-10.26
-10.77
-11.31
-11.96
-12.60
-12.94
-12.63
-11.57
-9.96
-8.21
-6.70
-5.66
-5.00
-4.50
-3.87
-2.99
-1.93
-0.90
-0.09
0.43
0.72
0.97
1.32
1.77
2.19
2.36
2.14
1.54
0.78
0.23
0.17
0.71
1.72
2.88
3.80
4.22
4.07
3.46
2.63
1.85
1.30
1.09
1.22
1.65
2.24
2.81
3.15
3.05
2.36
1.06
-0.73
-2.70
-4.46
-5.64
-6.03
-5.64
-4.71
-3.62
-2.76
-2.37
-2.48
-2.95
-3.51
-3.86
-3.76
-3.08
-1.87
-0.31
1.35
2.84
4.01
4.79
5.20
5.23
4.86
4.05
2.82
1.29
-0.29
-1.61
-2.39
-2.43
-1.71
-0.33
1.39
3.03
4.14
4.44
3.96
3.09
2.44
2.54
3.59
5.37
7.26
8.59
8.85
7.91
5.95
3.36
0.53
-2.25
-4.77
-6.92
-8.64
-9.90
-10.72
-11.16
-11.33
-11.41
-11.56
-11.94
-12.66
-13.69
-14.89
-16.04
-16.85
-17.04
-16.48
-15.15
-13.18
-10.80
-8.26
-5.78
-3.54
-1.73
-0.45
0.29
0.61
0.77
1.11
1.88
3.15
4.75
6.34
7.54
8.15
8.13
7.57
6.61
5.41
4.13
3.00
2.32
2.32
3.11
4.60
6.49
8.39
9.99
11.08
11.63
11.60
11.00
9.86
8.30
6.51
4.74
3.23
2.07
1.12
-0.07
-1.96
-4.73
-8.26
-12.13
-15.86
-18.94
-21.05
-22.03
-22.21
-21.80
-20.73
-18.78
-15.87
-12.29
-8.63
-5.68
-4.15
-4.88
-7.97
-12.57
-17.32
-21.07
-23.25
-23.96
-23.75
-23.32
-23.79
-25.61
-28.36
-31.05
-32.73
-32.78
-30.84
-26.64
-16.69
-0.79
17.62
33.66
44.29
49.15
49.50
47.02
43.25
39.15
34.60
29.37
23.88
18.51
13.62
9.35
5.67
2.53
-0.18
-3.00
-6.18
-9.49
-12.37
-14.19
-14.53
-13.21
-10.31
-6.22
-1.84
2.04
4.98
7.02
8.45
9.53
10.43
11.12
11.48
11.24
10.39
9.09
7.57
5.87
3.77
0.95
-2.74
-7.13
-11.81
-16.19
-19.66
-21.76
-22.20
-20.87
-17.84
-13.30
-7.57
-1.16
5.40
11.57
16.92
21.14
23.97
25.30
25.18
23.86
21.77
19.37
16.98
14.67
12.32
9.74
6.91
3.96
1.18
-1.11
-2.61
-3.01
-2.00
0.76
5.40
11.68
18.82
25.70
31.26
34.95
36.93
37.85
38.41
38.82
38.73
37.39
34.24
29.31
23.31
17.33
12.34
8.73
6.29
4.38
2.42
0.17
-2.17
-4.10
-5.11
-4.97
-3.79
-1.97
0.03
1.83
3.22
4.11
4.45
4.18
3.26
1.73
-0.24
-2.37
-4.41
-6.25
-7.91
-9.55
-11.28
-13.15
-15.04
-16.73
-17.98
-18.53
-18.17
-16.75
-14.24
-10.74
-6.55
-2.16
1.92
5.20
7.31
8.05
7.35
5.27
1.99
-2.05
-6.23
-9.88
-12.47
-13.82
-14.13
-13.87
-13.54
-13.39
-13.46
-13.66
-13.97
-14.42
-14.96
-15.29
-14.76
-12.63
-8.35
-1.98
5.83
14.09
21.96
29.04
35.33
40.81
45.12
47.42
46.78
42.80
35.98
27.72
19.71
13.22
8.64
5.46
2.80
-0.03
-3.09
-5.92
-7.94
-8.84
-8.81
-8.39
-8.21
-8.64
-9.65
-10.93
-12.14
-13.17
-14.19
-15.52
-17.45
-20.01
-22.93
-25.79
-28.22
-30.08
-31.45
-32.49
-33.29
-33.76
-33.67
-32.85
-31.30
-29.16
-26.62
-23.71
-20.30
-16.22
-11.47
-6.30
-1.29
2.91
5.78
7.10
6.97
5.62
3.18
-0.34
-5.03
-10.79
-17.14
-23.17
-27.82
-30.24
-30.19
-28.29
-25.79
-24.08
-24.08
-25.86
-28.60
-30.97
-31.69
-29.84
-25.08
-17.52
-7.64
3.74
15.41
25.79
33.32
36.89
36.35
32.62
27.29
21.95
17.54
14.09
10.94
7.33
2.81
-2.54
-8.28
-13.89
-19.00
-23.43
-27.02
-29.57
-30.77
-30.34
-28.15
-24.29
-19.10
-13.04
-6.62
-0.28
5.58
10.61
14.54
17.19
18.50
18.57
17.57
15.73
13.25
10.39
7.44
4.77
2.75
1.64
1.46
2.03
3.11
4.52
6.30
8.64
11.70
15.45
19.59
23.54
26.74
28.75
29.39
28.79
27.27
25.19
22.87
20.55
18.32
16.24
14.33
12.64
11.22
10.12
9.36
8.93
8.84
9.11
9.81
10.96
12.50
14.27
16.09
17.78
19.30
20.68
21.99
23.26
24.45
25.45
26.17
26.43
26.12
25.10
23.32
20.84
17.85
14.57
11.20
7.91
4.70
1.55
-1.57
-4.57
-7.29
-9.45
-10.77
-11.09
-10.37
-8.71
-6.31
-3.33
0.07
3.72
7.38
10.65
13.08
14.29
14.10
12.70
10.52
8.06
5.66
3.44
1.25
-1.16
-3.97
-7.21
-10.69
-14.05
-16.87
-18.73
-19.34
-18.57
-16.51
-13.42
-9.69
-5.70
-1.76
2.01
5.55
8.86
11.82
14.29
16.10
17.24
17.82
18.14
18.49
19.09
20.02
21.24
22.61
23.97
25.08
25.64
25.36
24.08
21.92
19.31
16.91
15.37
15.14
16.28
18.51
21.23
23.72
25.28
25.33
23.54
19.87
14.66
8.46
2.00
-4.05
-9.24
-13.38
-16.51
-18.87
-20.72
-22.26
-23.55
-24.42
-24.57
-23.63
-21.43
-18.07
-13.95
-9.66
-5.70
-2.39
0.22
2.22
3.64
4.47
4.66
4.25
3.43
2.49
1.67
0.99
0.24
-0.93
-2.86
-5.65
-9.18
-13.08
-16.89
-20.16
-22.59
-24.09
-24.79
-24.98
-24.99
-24.92
-24.58
-23.49
-21.12
-17.23
-12.05
-6.30
-0.90
3.38
6.18
7.59
7.98
7.72
7.01
5.89
4.33
2.43
0.41
-1.35
-2.51
-2.84
-2.25
-0.82
1.29
3.86
6.62
9.27
11.51
13.01
13.54
13.01
11.50
9.30
6.77
4.30
2.16
0.46
-0.81
-1.75
-2.47
-3.08
-3.69
-4.46
-5.57
-7.08
-8.93
-10.83
-12.36
-13.09
-12.79
-11.49
-9.53
-7.33
-5.29
-3.56
-2.11
-0.82
0.34
1.25
1.68
1.43
0.49
-0.91
-2.38
-3.58
-4.31
-4.59
-4.56
-4.40
-4.21
-4.07
-4.02
-4.09
-4.19
-4.07
-3.30
-1.40
1.94
6.73
12.57
18.75
24.45
28.94
31.74
32.64
31.68
29.06
25.05
20.04
14.51
9.03
4.15
0.28
-2.37
-3.93
-4.77
-5.45
-6.50
-8.26
-10.78
-13.76
-16.73
-19.16
-20.66
-21.07
-20.41
-18.91
-16.85
-14.56
-12.38
-10.58
-9.33
-8.61
-8.22
-7.86
-7.26
-6.40
-5.50
-4.93
-5.05
-6.01
-7.71
-9.86
-12.12
-14.26
-16.16
-17.73
-18.86
-19.32
-18.88
-17.38
-14.88
-11.65
-8.09
-4.62
-1.48
1.24
3.60
5.68
7.52
9.14
10.49
11.54
12.19
12.32
11.81
10.66
9.06
7.43
6.34
6.28
7.47
9.78
12.77
15.89
18.69
20.86
22.25
22.77
22.32
20.84
18.38
15.13
11.49
7.95
4.95
2.75
1.35
0.48
-0.23
-1.13
-2.44
-4.17
-6.17
-8.27
-10.37
-12.46
-14.60
-16.77
-18.85
-20.56
-21.61
-21.76
-20.93
-19.19
-16.69
-13.58
-10.03
-6.24
-2.50
0.83
3.39
4.93
5.41
5.05
4.17
3.14
2.20
1.39
0.60
-0.36
-1.68
-3.44
-5.58
-7.91
-10.14
-11.98
-13.16
-13.49
-12.85
-11.22
-8.60
-5.13
-1.06
3.21
7.22
10.52
12.79
13.89
13.93
13.23
12.21
11.40
11.26
12.09
13.94
16.52
19.25
21.42
22.36
21.71
19.45
15.93
11.75
7.61
4.18
1.91
1.02
1.46
2.93
4.99
7.12
8.88
9.95
10.16
9.56
8.34
6.85
5.48
4.54
4.12
4.01
3.69
2.50
-0.09
-4.30
-9.84
-16.00
-21.82
-26.35
-28.93
-29.25
-27.45
-23.96
-19.36
-14.27
-9.24
-4.69
-0.93
1.82
3.42
3.79
3.01
1.31
-0.96
-3.38
-5.58
-7.36
-8.68
-9.64
-10.42
-11.15
-11.89
-12.61
-13.18
-13.41
-13.13
-12.23
-10.67
-8.55
-6.04
-3.32
-0.56
2.20
4.96
7.79
10.76
13.85
16.94
19.76
21.91
22.99
22.66
20.80
17.55
13.30
8.65
4.22
0.52
-2.14
-3.68
-4.25
-4.11
-3.55
-2.78
-1.95
-1.18
-0.55
-0.16
-0.07
-0.30
-0.78
-1.47
-2.35
-3.48
-4.93
-6.74
-8.73
-10.62
-12.06
-12.81
-12.88
-12.55
-12.24
-12.34
-13.03
-14.18
-15.39
-16.14
-15.97
-14.67
-12.33
-9.37
-6.38
-3.89
-2.22
-1.44
-1.34
-1.69
-2.31
-3.12
-4.11
-5.22
-6.28
-7.03
-7.24
-6.80
-5.79
-4.44
-2.99
-1.65
-0.53
0.37
1.06
1.56
1.93
2.26
2.72
3.53
4.84
6.69
8.96
11.39
13.62
15.32
16.22
16.15
15.06
13.06
10.43
7.62
5.08
3.17
1.94
1.17
0.41
-0.81
-2.79
-5.57
-8.95
-12.56
-15.95
-18.68
-20.37
-20.77
-19.81
-17.62
-14.53
-10.98
-7.43
-4.25
-1.66
0.27
1.55
2.23
2.33
1.89
0.99
-0.21
-1.44
-2.45
-3.09
-3.40
-3.62
-4.01
-4.70
-5.56
-6.26
-6.39
-5.70
-4.19
-2.05
0.40
2.92
5.35
7.60
9.54
11.03
11.88
11.99
11.46
10.53
9.54
8.75
8.27
8.00
7.68
7.09
6.15
4.99
3.93
3.31
3.37
4.10
5.23
6.35
7.12
7.36
7.11
6.44
5.33
3.62
1.04
-2.54
-6.95
-11.70
-16.16
-19.74
-22.12
-23.30
-23.44
-22.84
-21.75
-20.47
-19.28
-18.54
-18.51
-19.24
-20.53
-21.90
-22.79
-22.73
-21.47
-19.05
-15.69
-11.67
-7.27
-2.71
1.81
6.04
9.67
12.42
14.17
14.94
14.98
14.63
14.23
13.97
13.90
13.89
13.71
13.13
12.03
10.48
8.80
7.48
7.00
7.67
9.47
12.08
14.96
17.62
19.78
21.41
22.70
23.92
25.26
26.81
28.51
30.15
31.42
31.93
31.32
29.38
26.16
21.96
17.27
12.62
8.42
4.90
2.17
0.21
-1.04
-1.72
-2.09
-2.51
-3.30
-4.64
-6.47
-8.50
-10.34
-11.76
-12.76
-13.53
-14.32
-15.25
-16.24
-17.11
-17.69
-17.95
-18.06
-18.21
-18.56
-19.17
-20.03
-21.14
-22.55
-24.28
-26.12
-27.61
-28.07
-26.86
-23.67
-18.68
-12.59
-6.31
-0.71
3.67
6.70
8.57
9.62
10.14
10.32
10.21
9.78
9.02
7.99
6.81
5.70
4.94
4.79
5.50
7.12
9.53
12.31
14.92
16.82
17.71
17.75
17.50
17.83
19.56
23.01
27.86
33.11
37.45
39.68
39.15
35.86
30.46
23.94
17.29
11.28
6.28
2.30
-1.00
-4.19
-7.89
-12.51
-18.08
-24.12
-29.77
-34.04
-36.00
-35.21
-31.86
-26.68
-20.61
-14.51
-8.98
-4.32
-0.67
2.11
4.14
5.39
5.67
4.86
3.11
0.83
-1.49
-3.33
-4.03
-3.17
-0.85
2.34
5.68
8.77
11.64
14.64
18.19
22.93
29.15
36.52
44.20
51.31
57.24
61.55
63.57
59.69
47.72
28.77
7.54
-10.62
-22.60
-28.34
-29.95
-30.28
-31.24
-32.82
-33.59
-32.07
-27.75
-21.39
-14.47
-8.31
-4.06
-1.25
1.17
4.09
7.68
11.29
14.05
15.41
15.47
14.73
14.01
14.12
15.50
17.94
20.68
22.72
23.20
22.43
20.66
18.32
15.90
13.73
11.89
10.16
8.23
5.91
3.27
0.44
-2.29
-4.69
-6.67
-8.30
-9.81
-11.40
-13.16
-15.00
-16.84
-18.48
-19.81
-20.75
-21.29
-21.50
-21.44
-21.22
-20.89
-20.55
-20.26
-20.01
-19.81
-19.59
-19.25
-18.67
-17.73
-16.40
-14.78
-13.08
-11.54
-10.33
-9.51
-9.02
-8.77
-8.63
-8.55
-8.46
-8.33
-8.14
-7.84
-7.46
-7.05
-6.70
-6.44
-6.28
-6.21
-6.18
-6.15
-6.10
-5.97
-5.69
-5.18
-4.39
-3.32
-2.05
-0.75
0.44
1.42
2.13
2.56
2.77
2.80
2.77
2.77
2.91
3.26
3.76
4.26
4.56
4.44
3.89
3.01
2.07
1.27
0.68
0.22
-0.28
-0.88
-1.55
-2.10
-2.36
-2.29
-2.03
-1.80
-1.75
-1.90
-2.11
-2.19
-2.02
-1.64
-1.20
-0.86
-0.71
-0.71
-0.73
-0.68
-0.52
-0.32
-0.23
-0.38
-0.85
-1.57
-2.37
-3.02
-3.23
-2.89
-1.98
-0.73
0.52
1.40
1.70
1.39
0.70
-0.06
-0.55
-0.56
-0.06
0.84
1.93
2.92
3.52
3.49
2.73
1.27
-0.66
-2.71
-4.55
-5.96
-6.85
-7.27
-7.38
-7.28
-7.06
-6.70
-6.15
-5.43
-4.58
-3.77
-3.19
-2.94
-2.99
-3.11
-2.97
-2.32
-1.07
0.63
2.50
4.24
5.69
6.81
7.66
8.26
8.54
8.40
7.77
6.82
5.89
5.39
5.66
6.72
8.32
9.96
11.14
11.47
10.69
8.72
5.53
1.18
-4.09
-9.78
-15.14
-19.32
-21.65
-21.95
-20.60
-18.42
-16.32
-14.94
-14.46
-14.65
-15.09
-15.43
-15.52
-15.40
-15.10
-14.61
-13.78
-12.49
-10.73
-8.70
-6.74
-5.21
-4.31
-4.03
-4.14
-4.32
-4.27
-3.84
-3.06
-2.10
-1.16
-0.37
0.26
0.81
1.34
1.84
2.25
2.51
2.64
2.77
3.06
3.63
4.44
5.32
6.02
6.34
6.21
5.72
5.02
4.25
3.52
2.86
2.29
1.81
1.41
1.08
0.73
0.27
-0.36
-1.19
-2.17
-3.23
-4.27
-5.22
-5.99
-6.46
-6.49
-5.90
-4.64
-2.83
-0.80
1.03
2.27
2.75
2.57
2.02
1.45
1.12
1.09
1.31
1.70
2.21
2.85
3.62
4.48
5.35
6.13
6.75
7.15
7.33
7.30
7.12
6.90
6.78
6.89
7.26
7.76
8.16
8.21
7.76
6.83
5.61
4.34
3.20
2.29
1.59
1.09
0.76
0.62
0.64
0.74
0.79
0.66
0.25
-0.39
-1.11
-1.70
-1.98
-1.91
-1.60
-1.27
-1.16
-1.42
-2.00
-2.73
-3.37
-3.74
-3.75
-3.48
-3.06
-2.59
-2.13
-1.70
-1.32
-1.05
-0.94
-1.02
-1.24
-1.50
-1.80
-2.18
-2.79
-3.76
-5.08
-6.57
-7.96
-9.06
-9.85
-10.47
-11.15
-12.03
-13.13
-14.35
-15.54
-16.66
-17.75
-18.88
-20.06
-21.26
-22.37
-23.33
-24.16
-24.94
-25.79
-26.84
-28.09
-29.42
-30.56
-31.17
-30.93
-29.67
-27.45
-24.60
-21.52
-18.59
-15.99
-13.73
-11.72
-9.94
-8.57
-7.89
-8.23
-9.72
-12.27
-15.56
-19.13
-22.60
-25.67
-28.21
-30.16
-31.58
-32.60
-33.46
-34.35
-35.32
-36.06
-35.90
-33.94
-29.51
-22.55
-13.89
-5.15
1.75
5.20
4.42
-0.26
-7.65
-16.05
-23.82
-29.60
-32.53
-32.16
-28.39
-21.56
-12.46
-2.40
6.96
13.97
17.44
17.02
13.30
7.65
1.76
-2.83
-5.14
-4.80
-2.03
2.66
8.56
14.96
21.19
26.64
30.81
33.42
34.38
33.81
31.95
29.11
25.59
21.63
17.41
13.08
8.66
4.12
-0.64
-5.70
-10.96
-16.09
-20.51
-23.43
-24.13
-22.19
-17.69
-11.18
-3.58
4.08
10.97
16.55
20.65
23.30
24.68
24.97
24.32
22.93
21.01
18.84
16.62
14.50
12.49
10.47
8.23
5.65
2.77
-0.09
-2.37
-3.41
-2.67
0.08
4.66
10.48
16.77
22.73
27.74
31.41
33.59
34.31
33.75
32.17
29.95
27.57
25.52
24.24
23.95
24.59
25.80
26.97
27.52
27.04
25.47
23.12
20.55
18.35
16.99
16.63
17.22
18.51
20.21
22.12
24.07
25.96
27.61
28.81
29.29
28.82
27.29
24.76
21.42
17.59
13.62
9.79
6.31
3.24
0.50
-2.06
-4.61
-7.14
-9.44
-11.14
-11.75
-10.92
-8.52
-4.70
0.15
5.54
10.92
15.77
19.58
21.90
22.47
21.33
18.84
15.61
12.37
9.67
7.75
6.57
5.80
5.07
4.00
2.34
-0.03
-3.03
-6.35
-9.44
-11.68
-12.51
-11.67
-9.26
-5.68
-1.47
2.92
7.18
11.17
14.77
17.86
20.28
21.87
22.60
22.54
21.90
20.89
19.75
18.66
17.76
17.12
16.66
16.23
15.61
14.66
13.46
12.30
11.53
11.39
11.88
12.72
13.43
13.58
12.90
11.36
9.14
6.53
3.80
1.19
-1.14
-3.08
-4.57
-5.63
-6.30
-6.65
-6.76
-6.69
-6.47
-6.11
-5.64
-5.03
-4.19
-2.97
-1.18
1.33
4.58
8.39
12.44
16.34
19.71
22.29
23.92
24.55
24.23
23.05
21.22
18.99
16.66
14.45
12.44
10.60
8.77
6.79
4.53
1.94
-0.96
-4.09
-7.30
-10.36
-13.00
-14.91
-15.88
-15.83
-14.85
-13.17
-11.11
-8.92
-6.84
-4.98
-3.48
-2.45
-2.04
-2.36
-3.43
-5.13
-7.16
-9.16
-10.82
-11.94
-12.55
-12.82
-12.97
-13.18
-13.48
-13.79
-13.92
-13.66
-12.80
-11.14
-8.51
-4.81
-0.03
5.61
11.66
17.51
22.47
25.88
27.31
26.61
24.03
20.10
15.51
10.93
6.82
3.39
0.59
-1.74
-3.73
-5.50
-7.05
-8.39
-9.51
-10.39
-10.96
-11.16
-10.93
-10.35
-9.58
-8.80
-8.20
-7.84
-7.68
-7.58
-7.46
-7.23
-6.91
-6.53
-6.14
-5.83
-5.69
-5.85
-6.41
-7.46
-8.98
-10.86
-12.86
-14.67
-16.00
-16.60
-16.37
-15.34
-13.69
-11.65
-9.49
-7.41
-5.53
-3.89
-2.47
-1.27
-0.26
0.55
1.19
1.64
1.90
1.90
1.55
0.76
-0.44
-1.97
-3.61
-5.16
-6.40
-7.20
-7.41
-6.83
-5.30
-2.69
0.96
5.38
10.17
14.82
18.90
22.12
24.36
25.64
26.14
26.12
25.93
26.00
26.67
28.09
30.11
32.20
33.57
33.36
30.92
26.04
19.03
10.72
2.24
-5.29
-11.00
-14.46
-15.70
-15.13
-13.38
-11.13
-8.94
-7.22
-6.10
-5.53
-5.27
-5.08
-4.77
-4.29
-3.80
-3.53
-3.75
-4.62
-6.15
-8.25
-10.78
-13.65
-16.78
-20.07
-23.31
-26.19
-28.33
-29.43
-29.33
-28.05
-25.78
-22.72
-19.08
-15.04
-10.86
-6.93
-3.78
-1.96
-1.84
-3.48
-6.56
-10.48
-14.59
-18.32
-21.28
-23.30
-24.35
-24.51
-23.96
-22.88
-21.47
-19.79
-17.84
-15.49
-12.68
-9.43
-5.94
-2.47
0.69
3.34
5.36
6.74
7.50
7.67
7.36
6.69
5.88
5.14
4.69
4.66
5.07
5.81
6.67
7.47
8.16
8.84
9.71
10.92
12.48
14.17
15.60
16.45
16.58
16.10
15.27
14.40
13.67
13.08
12.52
11.80
10.81
9.44
7.65
5.40
2.69
-0.41
-3.70
-6.86
-9.51
-11.34
-12.27
-12.41
-11.99
-11.21
-10.13
-8.60
-6.45
-3.64
-0.35
3.04
6.07
8.37
9.78
10.30
10.02
9.03
7.38
5.10
2.31
-0.77
-3.77
-6.32
-8.13
-9.13
-9.50
-9.58
-9.74
-10.23
-11.10
-12.17
-13.15
-13.70
-13.56
-12.61
-10.86
-8.44
-5.57
-2.52
0.45
3.08
5.15
6.52
7.15
7.10
6.53
5.65
4.66
3.70
2.84
2.01
1.11
-0.01
-1.43
-3.09
-4.82
-6.32
-7.26
-7.37
-6.57
-4.88
-2.45
0.54
3.96
7.68
11.57
15.44
19.04
22.03
24.08
24.94
24.47
22.72
19.89
16.28
12.17
7.80
3.36
-1.02
-5.19
-8.94
-12.06
-14.29
-15.40
-15.24
-13.77
-11.15
-7.73
-4.02
-0.59
2.14
3.95
4.95
5.43
5.69
5.90
6.02
5.89
5.36
4.37
2.99
1.30
-0.71
-3.16
-6.19
-9.87
-13.97
-18.02
-21.36
-23.37
-23.68
-22.19
-19.14
-14.92
-10.07
-5.14
-0.66
2.95
5.39
6.59
6.65
5.82
4.41
2.67
0.84
-0.91
-2.44
-3.61
-4.38
-4.81
-5.09
-5.42
-5.91
-6.44
-6.70
-6.24
-4.73
-2.07
1.45
5.27
8.73
11.31
12.79
13.27
13.09
12.65
12.25
11.97
11.69
11.15
10.09
8.31
5.76
2.59
-0.97
-4.62
-8.07
-11.07
-13.41
-14.88
-15.28
-14.43
-12.31
-9.05
-4.97
-0.46
4.13
8.55
12.63
16.19
18.97
20.61
20.76
19.26
16.21
12.06
7.42
2.89
-1.08
-4.33
-6.92
-9.03
-10.83
-12.32
-13.31
-13.52
-12.66
-10.66
-7.67
-4.06
-0.23
3.49
6.91
10.00
12.69
14.85
16.23
16.51
15.48
13.09
9.53
5.15
0.34
-4.55
-9.22
-13.45
-17.05
-19.87
-21.81
-22.89
-23.22
-22.96
-22.24
-21.06
-19.30
-16.85
-13.71
-10.12
-6.50
-3.33
-0.97
0.43
0.98
0.92
0.52
0.02
-0.44
-0.78
-0.92
-0.76
-0.22
0.79
2.31
4.37
6.99
10.10
13.62
17.38
21.15
24.66
27.59
29.69
30.76
30.82
30.00
28.57
26.73
24.51
21.75
18.11
13.28
7.23
0.32
-6.74
-13.08
-17.99
-21.21
-23.02
-24.10
-25.21
-26.91
-29.27
-31.93
-34.15
-35.17
-34.40
-31.59
-26.97
-21.07
-14.69
-8.60
-3.44
0.39
2.76
3.76
3.63
2.70
1.32
-0.23
-1.75
-3.17
-4.54
-5.89
-7.25
-8.58
-9.79
-10.76
-11.39
-11.56
-11.15
-10.01
-8.04
-5.28
-1.98
1.44
4.56
7.11
9.01
10.39
11.41
12.15
12.50
12.31
11.46
9.97
8.06
5.98
3.97
2.11
0.28
-1.67
-3.90
-6.33
-8.63
-10.29
-10.80
-9.85
-7.51
-4.23
-0.74
2.20
4.04
4.53
3.74
1.96
-0.36
-2.81
-4.98
-6.58
-7.46
-7.65
-7.30
-6.71
-6.19
-6.05
-6.49
-7.59
-9.28
-11.26
-13.07
-14.13
-13.87
-11.91
-8.14
-2.83
3.41
9.79
15.52
19.99
22.94
24.44
24.79
24.40
23.57
22.46
21.05
19.29
17.21
14.89
12.52
10.23
8.00
5.72
3.24
0.51
-2.35
-5.07
-7.32
-8.83
-9.47
-9.22
-8.15
-6.38
-4.10
-1.51
1.12
3.52
5.52
7.05
8.20
9.15
10.08
11.03
11.94
12.58
12.68
12.00
10.38
7.85
4.62
1.10
-2.16
-4.57
-5.57
-4.84
-2.32
1.63
6.35
10.92
14.40
16.05
15.48
12.74
8.28
2.84
-2.77
-7.82
-11.79
-14.47
-15.91
-16.43
-16.47
-16.41
-16.51
-16.78
-16.96
-16.69
-15.63
-13.64
-10.89
-7.78
-4.81
-2.41
-0.77
0.16
0.61
0.81
0.96
1.17
1.50
1.97
2.59
3.32
4.08
4.76
5.30
5.68
5.90
5.98
5.88
5.59
5.13
4.61
4.20
4.02
4.03
4.07
3.87
3.25
2.20
0.92
-0.32
-1.25
-1.77
-1.92
-1.82
-1.69
-1.65
-1.82
-2.27
-3.01
-4.03
-5.24
-6.49
-7.55
-8.14
-7.94
-6.68
-4.19
-0.51
4.09
9.04
13.66
17.27
19.42
19.97
19.15
17.46
15.43
13.57
12.12
11.11
10.38
9.64
8.58
6.93
4.57
1.50
-2.10
-5.98
-9.78
-13.18
-15.87
-17.64
-18.37
-18.00
-16.58
-14.24
-11.25
-7.98
-4.92
-2.57
-1.28
-1.19
-2.17
-3.93
-6.06
-8.18
-9.98
-11.34
-12.22
-12.75
-13.09
-13.39
-13.72
-13.95
-13.80
-12.93
-11.06
-8.11
-4.23
0.26
4.99
9.63
13.91
17.66
20.73
23.00
24.45
25.12
25.15
24.70
23.91
22.87
21.53
19.86
17.80
15.38
12.65
9.67
6.52
3.28
0.11
-2.65
-4.58
-5.25
-4.45
-2.31
0.70
3.93
6.76
8.80
9.92
10.17
9.67
8.50
6.68
4.27
1.41
-1.67
-4.75
-7.62
-10.18
-12.43
-14.41
-16.25
-18.06
-19.86
-21.54
-22.77
-23.07
-22.00
-19.34
-15.27
-10.35
-5.40
-1.24
1.63
3.08
3.37
2.96
2.34
1.88
1.78
2.11
2.79
3.68
4.55
5.17
5.38
5.18
4.66
4.02
3.43
2.96
2.59
2.27
2.02
1.90
2.02
2.38
2.83
3.10
2.91
2.12
0.74
-1.02
-2.90
-4.60
-5.92
-6.68
-6.88
-6.59
-6.06
-5.67
-5.73
-6.46
-7.77
-9.36
-10.72
-11.39
-11.01
-9.50
-7.08
-4.16
-1.31
0.99
2.43
2.90
2.54
1.58
0.29
-1.13
-2.54
-3.83
-4.94
-5.79
-6.34
-6.58
-6.58
-6.46
-6.44
-6.71
-7.42
-8.54
-9.79
-10.76
-10.99
-10.20
-8.39
-5.89
-3.21
-0.87
0.81
1.70
1.92
1.62
0.96
0.06
-0.94
-1.93
-2.74
-3.29
-3.55
-3.57
-3.47
-3.31
-3.15
-2.99
-2.84
-2.69
-2.49
-2.10
-1.35
-0.11
1.59
3.52
5.24
6.37
6.67
6.25
5.48
4.83
4.70
5.23
6.35
7.83
9.43
10.93
12.20
13.15
13.68
13.73
13.33
12.64
11.96
11.65
11.98
13.08
14.88
17.16
19.61
21.86
23.55
24.35
24.03
22.47
19.79
16.34
12.56
8.92
5.75
3.16
1.10
-0.59
-2.08
-3.51
-4.96
-6.48
-8.13
-9.95
-11.90
-13.86
-15.65
-17.06
-17.93
-18.19
-17.80
-16.80
-15.28
-13.43
-11.52
-9.89
-8.90
-8.78
-9.57
-11.07
-12.83
-14.34
-15.18
-15.13
-14.27
-12.89
-11.35
-9.93
-8.69
-7.46
-5.99
-4.09
-1.76
0.81
3.34
5.59
7.46
8.91
9.93
10.41
10.19
9.12
7.22
4.75
2.22
0.28
-0.57
-0.15
1.27
3.07
4.47
4.84
3.96
2.08
-0.11
-1.79
-2.19
-0.88
2.20
6.68
11.85
16.82
20.67
22.70
22.58
20.51
17.10
13.16
9.43
6.31
3.79
1.56
-0.74
-3.30
-6.04
-8.69
-10.95
-12.67
-13.78
-14.33
-14.30
-13.61
-12.24
-10.25
-7.92
-5.71
-4.09
-3.37
-3.58
-4.46
-5.67
-6.83
-7.71
-8.26
-8.61
-8.95
-9.44
-10.16
-11.01
-11.89
-12.66
-13.15
-13.24
-12.94
-12.32
-11.45
-10.38
-9.10
-7.72
-6.34
-4.95
-3.50
-2.01
-0.58
0.69
1.64
2.15
2.00
1.15
-0.10
-1.23
-1.79
-1.61
-0.71
0.55
1.69
1.82
0.28
-3.07
-7.79
-13.00
-17.71
-20.96
-22.33
-19.91
-13.43
-4.65
3.62
9.39
12.35
12.64
11.61
10.22
9.12
8.36
7.96
8.56
10.47
13.38
16.57
19.39
21.38
22.45
22.51
21.66
20.22
18.51
16.53
14.20
11.70
9.44
7.86
7.02
6.63
6.25
5.37
3.25
-0.65
-6.29
-13.18
-20.50
-27.36
-32.84
-35.93
-33.80
-25.19
-11.91
1.83
11.96
16.75
16.92
14.50
11.01
7.23
2.91
-2.43
-8.31
-13.66
-17.21
-18.04
-16.11
-12.24
-7.66
-3.76
-1.40
-0.57
-0.55
-0.37
0.79
3.28
6.91
11.12
14.93
17.23
17.04
13.66
7.17
-0.79
-7.45
-10.45
-9.11
-4.58
1.00
5.39
7.82
8.31
7.28
5.13
2.10
-1.62
-5.71
-9.35
-11.67
-12.05
-10.50
-7.55
-4.08
-1.00
1.07
2.08
2.55
3.32
5.40
9.56
16.11
24.61
33.76
41.69
46.58
47.23
43.41
35.99
26.54
16.75
7.90
0.54
-5.45
-10.45
-14.87
-18.94
-22.68
-26.03
-28.90
-31.22
-32.93
-33.84
-33.56
-31.70
-28.14
-23.08
-17.12
-10.93
-5.15
-0.23
3.70
6.81
9.32
11.28
12.55
12.89
12.13
10.18
6.94
2.46
-2.86
-8.25
-12.74
-15.32
-15.31
-12.58
-7.32
-1.00
4.16
6.59
6.21
4.05
1.65
-0.37
-1.89
-2.99
-3.82
-4.30
-4.23
-3.53
-2.55
-1.89
-2.21
-3.84
-6.73
-10.61
-15.01
-19.40
-23.34
-26.52
-28.62
-29.31
-28.21
-25.09
-20.19
-14.02
-7.30
-0.81
4.86
9.31
12.39
14.18
14.80
14.41
13.35
12.03
10.76
9.71
8.90
8.25
7.76
7.46
7.41
7.84
8.84
10.30
11.92
13.54
15.19
17.09
19.44
22.39
26.29
31.35
37.42
43.92
49.95
54.65
57.34
57.67
55.76
52.52
48.92
45.62
42.76
40.26
38.05
35.97
33.57
27.69
16.77
1.70
-14.36
-28.15
-37.68
-42.46
-43.15
-41.17
-38.14
-35.01
-32.73
-31.32
-30.85
-31.26
-32.16
-32.97
-33.26
-32.81
-31.40
-29.18
-26.77
-24.81
-24.45
-26.49
-30.13
-33.70
-35.09
-32.67
-26.33
-17.28
-7.48
1.42
8.71
14.50
18.97
21.97
23.10
21.98
19.08
14.87
10.23
6.17
3.26
1.39
-0.07
-1.65
-3.37
-4.72
-4.97
-3.47
0.10
5.63
12.77
20.57
28.10
34.68
39.88
43.36
44.90
44.52
42.42
39.05
34.69
29.78
24.96
20.79
17.56
15.06
12.77
9.91
5.91
0.17
-7.17
-15.19
-22.73
-29.06
-34.20
-38.60
-43.06
-47.97
-53.89
-60.70
-67.67
-73.78
-78.29
-81.00
-82.06
-81.98
-76.91
-65.29
-48.56
-30.44
-14.19
-1.28
7.54
13.73
18.25
21.59
23.31
23.10
21.09
18.19
15.86
15.67
18.94
25.93
35.89
46.52
55.18
59.69
59.31
54.84
47.86
39.88
31.56
22.84
12.96
1.47
-11.66
-25.50
-38.38
-48.60
-54.87
-56.43
-52.89
-44.61
-30.75
-13.56
2.26
12.47
15.98
14.65
11.36
8.94
7.59
6.59
4.80
1.80
-1.80
-4.92
-7.22
-8.67
-9.66
-10.76
-12.27
-14.41
-16.91
-19.08
-20.27
-20.34
-19.62
-18.74
-18.37
-18.78
-19.93
-21.33
-22.09
-21.38
-18.87
-14.74
-9.56
-4.02
1.39
6.35
10.75
14.82
18.72
22.32
25.24
27.06
27.54
26.76
25.09
23.04
21.36
20.56
20.59
20.96
21.08
20.64
19.72
18.78
18.37
19.44
22.54
27.48
33.34
38.99
43.58
46.62
48.18
48.50
48.58
49.34
51.22
54.02
57.29
60.59
63.33
65.02
60.67
47.53
26.72
3.00
-18.48
-34.77
-44.77
-50.41
-53.25
-54.35
-53.67
-51.12
-47.00
-42.34
-38.27
-35.40
-33.82
-32.94
-32.11
-30.61
-28.20
-24.87
-21.34
-18.84
-18.18
-19.69
-23.10
-27.85
-32.85
-36.91
-39.00
-38.60
-35.59
-30.20
-23.03
-14.86
-6.60
1.08
7.71
12.96
16.52
18.20
18.12
16.53
13.89
10.67
7.33
4.18
1.35
-1.30
-3.95
-6.65
-9.24
-11.24
-12.04
-11.05
-7.99
-3.04
3.10
9.52
15.34
19.97
23.20
25.14
26.08
26.35
26.24
25.92
25.47
24.84
23.91
22.56
20.69
18.38
15.78
13.11
10.55
8.28
6.44
5.16
4.63
4.98
6.20
8.11
10.33
12.40
13.92
14.66
14.58
13.81
12.56
11.02
9.37
7.64
5.72
3.39
0.33
-3.72
-8.80
-14.60
-20.53
-25.83
-29.82
-32.05
-32.36
-30.88
-27.88
-23.71
-18.73
-13.32
-7.92
-3.04
0.90
3.65
5.18
5.62
5.23
4.28
3.03
1.53
-0.27
-2.37
-4.61
-6.68
-8.24
-9.02
-8.93
-7.99
-6.37
-4.30
-1.84
1.09
4.54
8.37
12.32
16.02
19.27
21.79
23.26
23.34
21.82
18.68
14.18
8.98
3.38
-1.64
-5.22
-7.34
-8.95
-10.79
-12.88
-14.73
-15.68
-15.18
-13.03
-9.55
-5.39
-1.10
3.03
6.88
10.31
13.09
14.84
15.26
14.08
11.25
7.05
1.99
-3.39
-8.65
-13.48
-17.58
-20.65
-22.47
-22.97
-22.24
-20.44
-17.83
-14.65
-11.10
-7.38
-3.69
-0.32
2.39
4.21
5.00
4.77
3.60
1.61
-1.00
-3.90
-6.71
-9.01
-10.50
-11.04
-10.75
-9.91
-8.88
-8.00
-7.51
-7.52
-7.98
-8.69
-9.32
-9.41
-8.52
-6.38
-2.97
1.37
6.04
10.31
13.53
15.36
15.84
15.34
14.40
13.48
12.87
12.61
12.53
12.41
12.10
11.54
10.74
9.73
8.50
7.07
5.56
4.22
3.29
2.99
3.29
3.86
4.22
3.89
2.64
0.63
-1.54
-3.58
-5.21
-6.31
-6.92
-6.78
-5.94
-4.60
-3.06
-1.64
-0.62
-0.11
-0.13
-0.69
-1.72
-3.14
-4.78
-6.37
-7.62
-8.32
-8.37
-7.85
-6.97
-5.95
-4.96
-4.08
-3.32
-2.62
-1.88
-1.02
0.01
1.18
2.47
3.81
5.00
5.74
5.72
4.75
2.83
0.18
-2.78
-5.39
-6.98
-7.11
-5.68
-2.93
0.60
4.07
6.78
7.52
5.40
0.53
-5.84
-11.75
-16.03
-17.74
-16.45
-12.29
-5.98
1.58
9.78
17.48
23.48
26.82
26.92
23.69
17.67
9.93
1.88
-5.15
-10.37
-13.60
-15.26
-16.07
-16.68
-17.41
-18.23
-18.84
-18.95
-18.37
-17.00
-13.99
-9.17
-3.45
1.68
4.91
5.78
4.56
1.99
-1.15
-4.25
-6.95
-8.94
-10.01
-10.09
-9.22
-7.59
-5.23
-2.32
0.89
4.19
7.41
10.48
13.31
15.82
17.92
19.47
20.28
20.17
19.21
17.78
16.49
15.98
16.59
18.23
20.31
21.90
21.26
17.37
10.59
2.59
-4.67
-9.83
-12.36
-12.61
-10.96
-7.73
-3.12
2.62
8.99
15.29
20.51
23.86
24.94
23.83
20.65
15.81
9.73
2.72
-5.03
-13.31
-21.66
-29.43
-35.93
-40.77
-43.62
-44.22
-42.53
-38.80
-33.51
-27.18
-20.32
-12.51
-4.50
2.37
6.92
8.81
8.45
6.56
3.96
1.29
-1.10
-3.35
-5.51
-7.29
-8.32
-8.38
-7.50
-5.92
-4.00
-2.08
-0.46
1.02
2.93
5.85
9.98
14.96
19.97
24.03
26.31
26.48
25.05
23.35
22.90
24.42
27.59
31.24
33.81
33.80
30.04
20.71
5.45
-13.88
-33.67
-49.61
-58.25
-58.13
-50.13
-37.28
-23.61
-12.91
-6.03
-2.65
-1.63
-1.63
-1.50
-0.54
1.65
5.28
9.98
14.84
18.42
19.40
17.05
11.28
2.74
-7.37
-17.48
-25.97
-31.59
-33.50
-31.61
-26.65
-20.00
-13.19
-7.48
-3.52
-1.21
-0.26
0.04
0.38
1.18
2.36
3.69
4.81
5.46
5.53
5.14
4.79
4.80
5.11
5.14
4.59
3.54
2.46
2.00
2.76
5.38
9.97
15.97
22.10
27.48
31.63
34.36
35.58
35.36
34.49
33.90
34.33
35.71
38.08
41.14
44.12
45.87
42.81
33.20
18.16
3.55
-8.43
-17.13
-22.85
-25.67
-25.89
-24.09
-20.52
-15.63
-10.20
-5.62
-2.65
-1.53
-2.09
-3.96
-6.61
-9.14
-10.84
-11.53
-11.87
-12.37
-13.38
-15.08
-17.59
-20.92
-24.78
-28.85
-32.91
-36.91
-40.41
-42.71
-43.12
-41.33
-37.50
-32.11
-25.94
-19.83
-14.54
-10.37
-7.30
-5.12
-3.60
-2.55
-1.82
-1.25
-0.78
-0.46
-0.33
-0.46
-0.88
-1.57
-2.38
-3.00
-2.95
-1.75
0.93
5.10
10.37
16.08
21.51
26.16
29.86
32.76
35.06
36.88
38.10
38.52
37.97
36.47
34.27
31.67
28.94
26.19
23.42
20.54
17.48
14.14
10.47
6.44
2.07
-2.47
-6.91
-10.93
-14.29
-16.84
-18.55
-19.41
-19.39
-18.41
-16.45
-13.60
-10.18
-6.74
-3.98
-2.62
-3.21
-5.93
-10.46
-16.05
-21.61
-26.11
-28.86
-29.69
-28.93
-27.14
-24.79
-22.10
-19.03
-15.52
-11.65
-7.68
-4.01
-0.95
1.38
3.10
4.42
5.52
6.43
7.00
7.09
6.65
5.85
5.08
4.82
5.43
7.04
9.51
12.50
15.65
18.65
21.41
23.95
26.35
28.66
30.84
32.75
34.17
34.83
34.50
33.14
30.89
28.15
25.41
23.07
21.28
19.90
18.59
17.00
14.88
12.16
8.89
5.16
1.00
-3.58
-8.49
-13.50
-18.17
-21.97
-24.38
-25.08
-24.08
-21.70
-18.49
-15.08
-11.99
-9.63
-8.26
-8.08
-9.18
-11.55
-14.90
-18.67
-22.15
-24.65
-25.78
-25.52
-24.21
-22.40
-20.57
-19.04
-17.81
-16.65
-15.25
-13.27
-10.60
-7.32
-3.72
-0.15
3.06
5.72
7.75
9.10
9.71
9.52
8.56
7.06
5.47
4.36
4.20
5.16
7.06
9.43
11.70
13.36
14.16
14.12
13.52
12.87
12.77
13.76
16.10
19.59
23.54
26.94
28.81
28.64
26.57
23.31
19.80
16.75
14.37
12.38
10.31
7.83
4.99
2.12
-0.37
-2.30
-3.80
-5.28
-7.25
-10.04
-13.70
-17.95
-22.20
-25.78
-28.00
-28.42
-26.91
-23.74
-19.54
-15.18
-11.62
-9.67
-9.83
-12.18
-16.30
-21.36
-26.27
-29.92
-31.56
-30.91
-28.26
-24.34
-19.98
-15.84
-12.27
-9.28
-6.66
-4.17
-1.65
0.97
3.65
6.29
8.72
10.66
11.79
11.80
10.62
8.44
5.80
3.35
1.73
1.30
2.16
4.14
6.86
9.92
12.89
15.43
17.33
18.59
19.37
19.91
20.36
20.71
20.75
20.22
19.01
17.24
15.27
13.53
12.33
11.77
11.67
11.75
11.66
11.09
9.76
7.46
4.12
-0.09
-4.75
-9.24
-12.96
-15.58
-17.10
-17.79
-18.00
-17.97
-17.68
-16.90
-15.29
-12.65
-8.96
-4.51
0.11
4.14
6.74
7.31
5.67
2.20
-2.26
-6.64
-10.02
-11.86
-12.09
-11.03
-9.16
-6.93
-4.66
-2.52
-0.58
1.10
2.46
3.45
4.03
4.19
3.96
3.43
2.75
2.03
1.37
0.82
0.40
0.11
0.04
0.33
1.11
2.48
4.44
6.81
9.28
11.47
12.98
13.45
12.63
10.34
6.61
1.72
-3.76
-9.02
-13.16
-15.44
-15.54
-13.65
-10.44
-6.80
-3.57
-1.29
-0.16
-0.05
-0.70
-1.81
-3.08
-4.25
-5.06
-5.26
-4.74
-3.53
-1.90
-0.28
0.84
1.08
0.32
-1.20
-2.95
-4.24
-4.47
-3.26
-0.62
3.17
7.64
12.22
16.34
19.44
20.97
20.53
17.98
13.57
7.91
1.88
-3.61
-7.89
-10.68
-12.06
-12.43
-12.22
-11.77
-11.20
-10.40
-9.16
-7.30
-4.77
-1.71
1.59
4.81
7.64
9.81
11.10
11.36
10.55
8.87
6.73
4.72
3.43
3.15
3.80
4.89
5.74
5.83
4.97
3.41
1.67
0.37
-0.09
0.42
1.71
3.35
4.82
5.66
5.55
4.38
2.25
-0.61
-3.89
-7.24
-10.26
-12.54
-13.72
-13.59
-12.27
-10.21
-8.11
-6.59
-6.00
-6.27
-7.03
-7.82
-8.34
-8.57
-8.71
-9.02
-9.74
-10.93
-12.61
-14.66
-16.85
-18.80
-20.10
-20.39
-19.52
-17.54
-14.74
-11.55
-8.36
-5.39
-2.77
-0.61
1.00
1.98
2.38
2.36
2.10
1.79
1.62
1.64
1.81
2.03
2.22
2.38
2.94
3.86
4.65
4.80
4.17
2.79
1.27
0.21
0.00
0.72
2.26
4.24
6.39
8.47
10.05
10.32
8.32
3.73
-2.76
-9.67
-15.67
-19.70
-21.30
-20.73
-18.31
-14.82
-10.99
-7.23
-3.76
-0.66
2.05
4.29
5.96
7.02
7.58
7.96
8.53
9.52
10.88
12.40
13.74
14.55
14.70
14.24
13.51
12.94
12.83
13.23
14.00
14.88
15.62
16.12
16.40
16.57
16.74
16.85
16.72
16.07
14.62
12.16
8.62
4.16
-0.80
-5.65
-9.75
-12.67
-14.32
-14.97
-15.11
-15.16
-15.29
-15.32
-14.86
-13.54
-11.18
-7.83
-3.72
0.84
5.48
9.85
13.55
16.18
17.49
17.36
15.92
13.41
10.15
6.46
2.62
-1.06
-4.28
-6.76
-8.38
-9.16
-9.36
-9.32
-9.34
-9.55
-9.88
-10.12
-10.04
-9.47
-8.38
-6.83
-4.89
-2.62
-0.09
2.51
4.85
6.51
7.13
6.56
4.96
2.74
0.44
-1.49
-2.81
-3.45
-3.50
-3.02
-2.08
-0.70
1.04
3.07
5.34
7.80
10.40
13.05
15.55
17.56
18.76
18.89
17.84
15.69
12.64
8.94
4.84
0.60
-3.54
-7.33
-10.55
-13.06
-14.83
-15.93
-16.43
-16.36
-15.59
-13.93
-11.17
-7.28
-2.51
2.64
7.51
11.60
14.63
16.61
17.71
18.06
17.63
16.25
13.81
10.35
6.17
1.68
-2.73
-6.77
-10.32
-13.29
-15.64
-17.28
-18.11
-18.12
-17.37
-16.05
-14.33
-12.42
-10.40
-8.34
-6.25
-4.18
-2.25
-0.65
0.43
0.88
0.68
-0.02
-1.05
-2.19
-3.32
-4.40
-5.41
-6.35
-7.17
-7.82
-8.21
-8.24
-7.74
-6.50
-4.34
-1.19
2.85
7.47
12.20
16.55
20.09
22.48
23.56
23.34
22.01
19.92
17.55
15.33
13.57
12.36
11.50
10.62
9.37
7.52
5.07
2.32
-0.26
-2.13
-2.87
-2.30
-0.51
2.18
5.29
8.30
10.74
12.25
12.58
11.68
9.66
6.79
3.53
0.39
-2.17
-3.84
-4.53
-4.40
-3.78
-3.09
-2.82
-3.44
-5.30
-8.50
-12.81
-17.56
-21.81
-24.53
-25.03
-23.12
-19.28
-14.44
-9.67
-5.81
-3.27
-1.98
-1.54
-1.54
-1.76
-2.25
-3.25
-5.01
-7.53
-10.52
-13.48
-15.94
-17.70
-18.84
-19.66
-20.35
-20.85
-20.71
-19.36
-16.32
-11.45
-5.06
2.16
9.40
15.92
21.22
25.11
27.60
28.81
28.88
27.99
26.35
24.25
22.05
20.07
18.46
17.10
15.69
13.83
11.31
8.29
5.22
2.77
1.49
1.67
3.20
5.67
8.52
11.21
13.32
14.50
14.52
13.24
10.72
7.25
3.41
-0.09
-2.61
-3.81
-3.77
-3.00
-2.24
-2.22
-3.40
-5.93
-9.52
-13.60
-17.41
-20.17
-21.23
-20.24
-17.33
-13.07
-8.44
-4.50
-2.12
-1.69
-3.02
-5.50
-8.37
-10.99
-13.03
-14.44
-15.37
-15.98
-16.42
-16.80
-17.28
-17.96
-18.86
-19.81
-20.45
-20.26
-18.83
-15.89
-11.48
-5.90
0.34
6.68
12.57
17.56
21.40
24.04
25.60
26.20
25.96
24.87
22.98
20.43
17.59
14.99
13.07
11.94
11.31
10.60
9.24
7.05
4.33
1.71
-0.19
-1.02
-0.88
-0.16
0.75
1.67
2.57
3.45
4.14
4.23
3.27
1.03
-2.26
-6.00
-9.36
-11.65
-12.58
-12.24
-11.04
-9.42
-7.68
-5.97
-4.33
-2.82
-1.54
-0.71
-0.46
-0.81
-1.55
-2.32
-2.73
-2.50
-1.60
-0.27
1.14
2.28
3.00
3.29
3.25
2.95
2.36
1.42
0.15
-1.27
-2.46
-3.06
-2.90
-2.14
-1.17
-0.50
-0.46
-1.08
-2.20
-3.51
-4.81
-6.00
-7.03
-7.85
-8.25
-8.00
-6.87
-4.77
-1.88
1.37
4.34
6.23
6.36
4.41
0.60
-4.23
-8.84
-12.01
-13.01
-11.77
-8.86
-5.11
-1.25
2.39
5.79
9.08
12.24
15.11
17.36
18.81
19.46
19.56
19.41
19.28
19.24
19.15
18.79
17.91
16.28
13.80
10.52
6.64
2.50
-1.48
-4.91
-7.48
-9.07
-9.70
-9.53
-8.76
-7.61
-6.20
-4.68
-3.19
-1.98
-1.40
-1.79
-3.34
-5.95
-9.19
-12.40
-14.88
-16.11
-15.92
-14.50
-12.26
-9.65
-7.05
-4.68
-2.67
-1.08
-0.02
0.40
0.07
-0.98
-2.55
-4.29
-5.79
-6.75
-7.13
-7.06
-6.84
-6.74
-6.88
-7.29
-7.98
-8.99
-10.50
-12.61
-15.27
-18.21
-20.92
-22.87
-23.62
-23.01
-21.08
-18.07
-14.30
-10.13
-5.92
-2.02
1.23
3.59
4.99
5.56
5.55
5.24
4.86
4.45
3.94
3.19
2.08
0.62
-0.96
-2.32
-3.02
-2.71
-1.25
1.23
4.38
7.74
10.97
13.86
16.38
18.66
20.76
22.64
24.11
24.87
24.61
23.19
20.63
17.14
13.06
8.80
4.71
1.12
-1.73
-3.67
-4.62
-4.63
-3.86
-2.54
-0.86
1.04
3.17
5.55
8.16
10.82
13.16
14.77
15.34
14.78
13.29
11.27
9.10
7.01
5.03
3.00
0.75
-1.82
-4.66
-7.54
-10.14
-12.13
-13.25
-13.37
-12.49
-10.74
-8.35
-5.64
-2.93
-0.52
1.26
2.08
1.65
-0.15
-3.20
-7.12
-11.31
-15.03
-17.69
-19.00
-19.08
-18.43
-17.60
-16.99
-16.75
-16.71
-16.36
-15.14
-12.67
-9.01
-4.60
0.05
4.48
8.35
11.52
14.19
16.67
19.13
21.39
22.98
23.63
23.33
22.25
20.73
19.41
18.92
19.66
21.65
24.48
27.91
31.57
34.88
35.79
32.51
24.71
14.05
3.83
-4.83
-11.65
-16.77
-20.21
-22.12
-22.60
-21.74
-19.73
-16.98
-14.16
-11.69
-9.90
-9.08
-9.42
-10.67
-12.27
-13.55
-14.10
-13.90
-13.02
-11.72
-10.33
-9.15
-8.25
-7.52
-6.87
-6.39
-6.35
-6.85
-7.83
-9.10
-10.43
-11.64
-12.64
-13.50
-14.36
-15.37
-16.42
-17.27
-17.66
-17.42
-16.49
-14.95
-12.95
-10.68
-8.34
-6.05
-3.87
-1.80
0.18
2.10
3.94
5.61
6.98
7.92
8.34
8.28
7.82
7.09
6.12
4.92
3.46
1.81
0.25
-0.74
-0.59
1.11
4.46
9.15
14.48
19.63
23.86
26.70
28.02
27.98
26.93
25.31
23.49
21.75
20.18
18.75
17.32
15.71
13.76
11.40
8.66
5.66
2.65
-0.02
-1.97
-2.84
-2.45
-0.86
1.62
