1635349030.00
64.000000
-0.00
-0.00
-0.00
-0.00
-0.00
-0.00
-0.00
-0.00
-0.00
-0.00
0.00
0.01
0.01
-0.00
-0.03
-0.05
-0.05
0.00
0.13
0.36
0.66
1.01
1.37
1.72
2.06
2.40
2.79
3.24
3.80
4.42
5.06
5.66
6.20
6.68
7.15
7.68
8.31
9.14
10.09
11.04
11.88
12.56
13.14
13.76
14.65
15.96
17.91
20.32
22.90
25.38
27.58
29.57
31.68
34.32
37.81
42.54
48.14
54.10
59.84
65.00
69.63
74.20
79.36
85.64
93.57
102.64
112.11
121.11
129.09
136.06
142.61
150.04
157.00
165.76
176.92
190.64
205.74
219.33
227.05
224.20
207.32
175.49
131.08
78.01
20.70
-37.51
-95.02
-151.65
-207.66
-262.96
-316.83
-367.79
-414.76
-456.78
-492.98
-522.40
-543.77
-555.64
-556.67
-546.03
-523.50
-489.98
-447.08
-396.94
-341.99
-284.67
-227.23
-171.59
-119.26
-71.12
-27.70
10.85
44.56
73.50
97.63
116.93
131.39
141.06
146.02
146.36
142.57
135.92
128.78
124.27
125.35
133.52
147.96
165.54
181.97
193.49
198.17
196.25
189.46
179.80
168.65
156.55
143.66
130.29
117.21
105.38
95.40
87.17
79.95
72.72
64.77
56.22
47.55
39.61
33.12
28.36
25.09
22.68
20.38
17.65
14.32
10.61
7.00
4.02
1.97
0.80
0.16
-0.42
-1.28
-2.48
-3.83
-4.99
-5.67
-5.82
-5.60
-5.27
-5.05
-5.08
-5.33
-5.75
-6.22
-6.62
-6.79
-6.56
-5.84
-4.68
-3.33
-2.13
-1.42
-1.35
-1.82
-2.58
-3.32
-3.79
-3.96
-3.86
-3.61
-3.29
-2.95
-2.61
-2.31
-2.13
-2.12
-2.29
-2.59
-2.93
-3.18
-3.22
-2.98
-2.50
-1.91
-1.40
-1.15
-1.22
-1.50
-1.81
-1.95
-1.80
-1.38
-0.83
-0.30
0.12
0.42
0.65
0.86
1.11
1.43
1.85
2.40
3.14
4.04
5.06
6.10
7.07
7.88
8.47
8.82
8.95
8.91
8.73
8.41
7.91
7.14
6.07
4.70
3.04
1.17
-0.80
-2.76
-4.61
-6.30
-7.75
-8.92
-9.78
-10.33
-10.59
-10.58
-10.35
-9.96
-9.48
-9.00
-8.55
-8.15
-7.75
-7.36
-6.95
-6.55
-6.20
-5.88
-5.59
-5.26
-4.87
-4.42
-3.95
-3.52
-3.19
-2.99
-2.94
-3.01
-3.17
-3.33
-3.36
-3.13
-2.54
-1.60
-0.44
0.71
1.61
2.06
2.04
1.65
1.09
0.52
0.05
-0.31
-0.62
-0.90
-1.14
-1.30
-1.35
-1.30
-1.21
-1.16
-1.21
-1.34
-1.50
-1.58
-1.45
-1.14
-0.63
0.03
0.79
1.57
2.26
2.80
3.12
3.23
3.17
3.03
2.88
2.74
2.57
2.34
2.07
1.81
1.66
1.70
1.93
2.29
2.65
2.93
3.10
3.15
3.11
2.98
2.73
2.34
1.82
1.24
0.68
0.19
-0.21
-0.52
-0.74
-0.83
-0.70
-0.35
0.20
0.86
1.49
2.02
2.40
2.64
2.71
2.56
2.17
1.60
0.95
0.34
-0.16
-0.59
-1.06
-1.64
-2.32
-3.03
-3.62
-4.03
-4.22
-4.25
-4.19
-4.10
-4.04
-4.09
-4.33
-4.76
-5.31
-5.76
-5.89
-5.55
-4.75
-3.68
-2.56
-1.62
-0.96
-0.57
-0.39
-0.37
-0.46
-0.65
-0.88
-1.09
-1.17
-1.10
-0.90
-0.67
-0.51
-0.50
-0.67
-0.95
-1.24
-1.45
-1.52
-1.46
-1.33
-1.24
-1.26
-1.45
-1.82
-2.32
-2.89
-3.42
-3.81
-3.97
-3.82
-3.37
-2.66
-1.81
-0.98
-0.35
-0.01
0.01
-0.17
-0.40
-0.50
-0.40
-0.16
0.03
-0.01
-0.38
-1.06
-1.92
-2.82
-3.61
-4.18
-4.42
-4.21
-3.46
-2.25
-0.86
0.33
0.93
0.74
-0.14
-1.46
-2.89
-4.12
-4.97
-5.31
-5.06
-4.15
-2.63
-0.67
1.48
3.52
5.24
6.54
7.39
7.81
7.84
7.56
7.12
6.73
6.59
6.81
7.36
8.06
8.70
9.03
8.94
8.42
7.54
6.45
5.28
4.15
3.10
2.15
1.34
0.66
0.15
-0.22
-0.51
-0.80
-1.19
-1.70
-2.24
-2.65
-2.78
-2.55
-2.05
-1.48
-1.06
-0.94
-1.15
-1.58
-2.09
-2.53
-2.82
-2.97
-3.06
-3.17
-3.38
-3.70
-4.12
-4.60
-5.10
-5.60
-6.09
-6.55
-6.89
-7.00
-6.75
-6.11
-5.15
-4.02
-2.88
-1.83
-0.93
-0.17
0.45
0.91
1.17
1.25
1.20
1.13
1.13
1.25
1.48
1.76
2.01
2.14
2.08
1.78
1.29
0.66
0.02
-0.55
-0.98
-1.29
-1.48
-1.60
-1.63
-1.57
-1.43
-1.20
-0.94
-0.71
-0.60
-0.66
-0.92
-1.31
-1.72
-2.02
-2.08
-1.87
-1.44
-0.86
-0.22
0.38
0.89
1.26
1.49
1.58
1.62
1.72
2.01
2.57
3.37
4.30
5.21
5.93
6.38
6.58
6.57
6.47
6.33
6.20
6.11
6.08
6.15
6.31
6.52
6.65
6.54
6.08
5.25
4.21
3.20
2.44
2.07
2.03
2.16
2.26
2.18
1.90
1.49
1.05
0.67
0.38
0.17
0.02
-0.07
-0.10
-0.06
0.05
0.21
0.38
0.54
0.75
1.09
1.59
2.25
2.90
3.36
3.48
3.23
2.78
2.36
2.20
2.40
2.88
3.40
3.70
3.59
3.07
2.28
1.38
0.56
-0.13
-0.70
-1.18
-1.59
-1.88
-2.02
-2.02
-1.95
-1.97
-2.18
-2.63
-3.22
-3.81
-4.29
-4.62
-4.86
-5.11
-5.42
-5.73
-5.94
-5.95
-5.69
-5.21
-4.60
-3.95
-3.32
-2.75
-2.23
-1.77
-1.42
-1.19
-1.11
-1.11
-1.08
-0.88
-0.43
0.26
1.03
1.65
1.89
1.67
1.12
0.50
0.14
0.22
0.74
1.53
2.40
3.16
3.76
4.18
4.40
4.34
3.95
3.26
2.46
1.80
1.50
1.61
1.96
2.27
2.24
1.72
0.76
-0.39
-1.49
-2.37
-2.98
-3.36
-3.61
-3.76
-3.81
-3.71
-3.43
-3.03
-2.61
-2.24
-1.90
-1.54
-1.15
-0.81
-0.53
-0.36
-0.32
-0.35
-0.32
-0.05
0.53
1.30
1.98
2.63
3.39
4.31
5.35
6.38
7.33
8.18
8.92
9.57
10.71
12.81
15.94
19.69
23.50
26.95
29.92
32.52
34.97
38.25
43.09
49.51
56.75
63.73
69.69
74.35
77.84
75.67
65.17
46.60
23.30
-0.41
-21.30
-37.52
-48.35
-54.06
-55.78
-54.43
-51.13
-47.03
-43.10
-40.09
-38.23
-37.49
-37.74
-38.72
-39.38
-38.64
-35.77
-30.32
-22.86
-14.25
-5.52
2.11
7.29
9.19
7.43
2.35
-4.97
-13.04
-20.19
-25.26
-27.97
-28.75
-28.22
-26.89
-25.24
-23.16
-20.65
-17.80
-14.81
-11.93
-9.29
-6.82
-4.36
-1.80
0.92
3.58
5.89
7.53
8.24
7.96
6.87
5.36
3.95
3.10
2.98
3.53
4.50
5.42
5.95
5.97
5.55
4.89
4.23
3.70
3.34
3.13
3.06
3.14
3.45
4.02
4.87
5.93
7.05
8.03
8.67
8.79
8.37
7.47
6.25
4.93
3.72
2.70
1.88
1.15
0.40
-0.40
-1.23
-2.02
-2.73
-3.31
-3.79
-4.18
-4.54
-4.88
-5.18
-5.46
-5.72
-5.99
-6.25
-6.44
-6.55
-6.63
-6.73
-6.90
-7.14
-7.36
-7.54
-7.53
-7.30
-6.89
-6.49
-6.27
-6.33
-6.74
-7.44
-8.37
-9.23
-9.72
-9.62
-8.92
-7.75
-6.22
-4.47
-2.44
-0.03
3.14
7.43
12.99
19.63
26.89
34.35
41.45
47.94
51.78
51.30
46.07
37.45
27.49
17.61
9.41
2.16
-4.74
-11.54
-18.05
-24.21
-30.27
-36.53
-43.12
-49.31
-54.48
-57.96
-59.49
-59.26
-58.22
-58.10
-60.88
-68.31
-80.14
-94.84
-108.98
-117.66
-115.43
-97.88
-63.12
-12.55
48.60
112.76
169.72
209.42
224.98
215.08
184.17
140.74
94.59
48.93
9.75
-18.11
-33.02
-36.38
-30.79
-19.27
-5.36
8.49
19.88
28.26
33.75
36.90
38.39
38.59
37.52
33.03
24.82
13.68
2.03
-8.10
-15.64
-20.37
-22.77
-23.62
-23.73
-23.41
-22.89
-21.94
-20.67
-19.43
-18.48
-17.84
-17.35
-16.77
-15.72
-14.13
-12.08
-10.05
-8.72
-8.52
-9.47
-11.06
-12.48
-12.87
-11.79
-9.36
-6.29
-3.57
-2.06
-2.15
-3.61
-5.75
-7.65
-8.55
-8.03
-6.04
-2.83
1.16
5.28
8.69
10.52
10.10
7.35
2.99
-1.66
-5.18
-6.85
-6.90
-6.36
-6.36
-7.50
-9.47
-11.19
-11.50
-9.91
-6.98
-3.97
-2.07
-1.72
-2.60
-3.76
-3.96
-2.13
2.31
9.14
17.49
25.87
32.46
35.05
31.92
22.73
9.05
-6.05
-19.33
-28.51
-33.01
-33.75
-32.75
-31.72
-31.07
-29.99
-26.09
-18.40
-8.29
0.11
4.84
5.65
3.53
-0.19
-4.19
-7.70
-10.70
-13.46
-15.97
-17.60
-17.77
-16.03
-12.32
-7.02
-1.08
4.17
7.56
8.61
7.85
6.25
4.96
4.82
6.18
8.68
11.45
13.57
14.50
14.30
13.31
12.02
10.90
10.33
10.53
11.48
12.89
14.24
14.96
14.38
12.12
8.26
3.48
-1.12
-4.40
-5.59
-4.52
-1.67
2.03
5.53
7.98
8.91
8.27
6.43
4.03
1.85
0.52
0.30
0.94
1.72
1.77
0.44
-2.35
-6.11
-9.97
-13.02
-14.61
-14.37
-12.29
-8.51
-3.38
2.59
8.67
14.09
18.19
20.67
21.67
21.65
21.11
20.37
19.42
18.07
16.14
13.74
11.19
8.92
7.18
5.89
4.70
3.24
1.26
-1.19
-3.90
-6.68
-9.49
-12.49
-15.87
-19.75
-24.06
-28.56
-32.89
-36.57
-39.09
-39.95
-38.81
-35.67
-31.00
-25.68
-20.83
-17.44
-16.08
-16.68
-18.61
-20.91
-22.61
-22.98
-21.71
-18.94
-15.15
-11.02
-7.21
-4.20
-2.20
-1.04
-0.30
0.60
2.16
4.62
7.83
11.38
14.75
17.48
19.32
20.23
20.31
19.69
18.51
16.99
15.43
14.25
13.76
14.13
15.25
16.86
18.63
20.19
21.24
21.53
20.91
19.39
17.24
14.96
13.26
12.66
13.26
14.79
16.75
18.73
20.47
21.86
22.96
24.04
25.35
26.98
28.76
30.15
30.40
28.69
24.52
18.17
10.84
4.04
-1.18
-4.65
-7.05
-9.33
-12.20
-15.77
-20.57
-25.98
-30.78
-33.96
-35.58
-36.45
-37.23
-37.80
-37.40
-35.02
-29.84
-21.94
-12.30
-2.42
5.71
10.76
12.21
10.40
6.37
1.67
-2.22
-4.23
-3.93
-1.60
1.99
5.76
8.64
9.98
9.86
8.97
8.36
9.07
11.61
15.72
20.23
23.45
23.79
20.58
14.26
6.22
-1.82
-8.51
-13.20
-15.99
-17.35
-17.68
-17.16
-15.78
-13.59
-10.86
-8.00
-5.46
-3.57
-2.44
-1.99
-1.96
-2.05
-1.88
-1.12
0.41
2.65
5.30
7.94
10.26
12.23
13.98
15.64
17.12
17.98
17.56
15.30
11.16
5.74
0.12
-4.74
-8.36
-10.89
-13.04
-15.64
-19.37
-24.42
-30.28
-35.71
-39.38
-40.31
-38.21
-33.30
-26.26
-18.09
-10.04
-3.15
2.12
5.50
7.06
7.17
6.39
5.17
3.84
2.58
1.15
-0.27
-1.32
-1.51
-0.43
2.05
5.59
9.45
12.73
14.71
15.10
14.02
11.98
9.77
8.25
8.15
9.84
13.21
17.59
21.83
24.54
24.58
21.55
16.04
9.48
3.60
-0.27
-1.72
-1.36
-0.42
-0.15
-1.12
-3.11
-5.29
-6.75
-6.84
-5.36
-2.36
2.02
7.60
14.00
20.49
25.98
29.36
29.94
27.84
23.89
19.22
14.71
10.66
6.83
2.79
-1.72
-6.55
-11.34
-15.77
-19.80
-23.62
-27.45
-31.29
-34.80
-37.41
-38.55
-37.90
-35.52
-31.78
-27.26
-22.52
-18.00
-13.97
-10.51
-7.60
-5.19
-3.17
-1.43
0.11
1.51
2.74
3.72
4.31
4.43
4.10
3.47
2.83
2.40
2.35
2.60
2.99
3.28
3.37
3.40
3.69
4.75
7.04
10.81
15.90
21.62
26.81
30.04
30.05
26.20
18.79
9.03
-1.28
-10.36
-17.08
-21.19
-23.26
-24.16
-24.60
-24.65
-23.70
-20.75
-15.01
-6.38
4.18
14.81
23.38
28.20
28.70
25.55
20.28
14.58
9.64
5.75
2.47
-0.91
-4.91
-9.51
-14.15
-17.97
-20.15
-20.24
-18.23
-14.63
-10.27
-6.10
-2.93
-1.31
-1.45
-3.18
-5.97
-9.01
-11.30
-11.97
-10.54
-7.10
-2.33
2.76
7.15
10.20
11.67
11.70
10.67
9.01
7.16
5.54
4.51
4.37
5.16
6.67
8.50
10.22
11.58
12.52
13.11
13.41
13.40
12.94
11.85
10.13
8.06
6.23
5.27
5.61
7.12
9.21
10.79
10.63
7.80
2.27
-5.11
-12.82
-19.25
-23.38
-24.75
-23.66
-20.93
-17.48
-13.82
-10.14
-6.52
-3.16
-0.52
1.31
2.50
3.47
4.77
7.16
11.22
17.04
24.13
31.44
38.30
44.32
49.38
51.65
49.63
42.88
32.44
21.49
10.38
-0.86
-12.00
-22.39
-31.04
-36.98
-39.80
-39.78
-37.72
-34.81
-31.62
-28.38
-25.19
-22.15
-19.24
-16.40
-13.55
-10.71
-8.20
-6.12
-4.58
-3.73
-3.65
-4.10
-4.66
-4.88
-4.55
-3.94
-3.37
-3.21
-3.72
-4.95
-6.60
-8.24
-9.48
-10.08
-10.07
-9.50
-8.50
-7.24
-5.91
-4.61
-3.29
-1.76
0.21
2.66
5.36
7.69
8.83
8.14
5.53
1.71
-1.95
-3.91
-3.05
0.83
6.91
13.51
18.66
20.74
18.96
13.75
6.66
0.03
-3.71
-2.83
3.08
12.82
23.84
32.88
36.92
34.13
24.54
10.16
-5.49
-18.50
-25.96
-26.90
-22.66
-16.05
-10.07
-6.60
-5.79
-6.52
-7.32
-7.41
-6.96
-6.72
-7.27
-8.52
-9.82
-10.42
-10.09
-9.33
-9.06
-10.05
-12.46
-15.68
-18.64
-20.31
-20.18
-18.40
-15.65
-12.84
-10.66
-9.37
-8.71
-8.14
-7.03
-4.99
-2.00
1.60
5.20
8.22
10.26
11.26
11.47
11.24
10.94
10.73
10.63
10.55
10.43
10.29
10.18
10.18
10.22
10.17
9.91
9.38
8.71
8.10
7.72
7.60
7.61
7.50
7.01
6.01
4.51
2.72
0.95
-0.41
-0.99
-0.56
0.91
3.19
5.87
8.44
10.54
12.02
12.99
13.64
14.09
14.37
14.50
14.59
14.91
15.75
17.13
18.66
19.53
18.81
15.84
10.55
3.52
-4.23
-11.60
-17.69
-21.91
-23.95
-23.72
-21.33
-17.24
-12.24
-7.36
-3.68
-1.93
-2.35
-4.59
-7.83
-11.11
-13.57
-14.73
-14.52
-13.30
-11.63
-10.09
-9.02
-8.43
-8.01
-7.35
-6.16
-4.40
-2.33
-0.37
1.14
2.05
2.51
2.82
3.33
4.30
5.81
7.85
10.25
12.78
15.14
17.08
18.32
18.66
18.02
16.41
14.04
11.19
8.29
5.84
4.31
3.93
4.56
5.75
6.86
7.44
7.09
5.75
3.76
1.84
0.91
1.83
5.19
11.11
19.10
27.76
35.03
38.97
38.35
33.11
24.34
13.95
3.92
-4.41
-11.23
-17.96
-26.26
-36.91
-49.44
-62.34
-73.61
-81.53
-82.69
-74.82
-58.56
-37.91
-18.05
-2.94
5.61
8.45
7.38
4.22
0.38
-3.25
-6.08
-7.57
-7.36
-5.40
-2.05
1.95
5.75
8.45
9.45
8.74
6.95
5.00
3.62
3.20
3.65
4.65
5.80
6.75
7.33
7.65
7.91
8.23
8.65
9.02
9.13
8.92
8.38
7.53
6.43
5.17
3.77
2.43
1.29
0.51
0.54
1.82
4.52
8.45
13.08
17.63
21.55
24.28
25.43
25.37
25.02
25.43
27.41
31.25
36.39
42.04
46.93
47.77
42.70
32.18
18.83
5.74
-4.04
-11.03
-16.20
-20.54
-24.86
-29.33
-34.06
-39.30
-45.03
-50.36
-53.57
-51.28
-41.79
-27.02
-11.92
-1.61
1.47
-1.73
-8.07
-14.34
-18.51
-20.93
-22.68
-24.34
-25.53
-25.35
-23.10
-18.84
-13.49
-8.16
-4.13
-2.11
-1.86
-2.44
-2.79
-2.31
-1.07
0.39
1.47
1.79
1.43
0.92
1.05
2.42
5.15
8.82
12.66
15.91
17.92
18.44
17.56
15.86
13.99
12.44
11.31
10.37
9.36
7.99
6.35
4.67
3.47
3.12
3.71
4.92
6.29
7.59
8.78
10.16
11.95
14.49
17.96
22.44
27.78
33.61
39.60
45.27
50.31
52.18
49.18
41.45
31.31
21.38
13.03
7.28
3.03
-0.64
-4.17
-7.60
-11.05
-14.70
-18.95
-24.22
-30.33
-36.50
-41.45
-43.25
-40.79
-36.34
-31.78
-27.84
-25.23
-24.06
-24.08
-24.75
-25.62
-26.42
-27.01
-26.92
-25.93
-24.11
-21.60
-18.68
-15.53
-12.37
-9.47
-7.18
-5.60
-4.90
-5.28
-6.62
-8.58
-10.51
-11.83
-12.18
-11.56
-9.95
-7.38
-3.96
0.11
4.33
8.10
10.88
12.28
12.20
11.02
9.53
8.41
8.02
7.92
7.71
7.02
5.80
4.20
2.62
1.95
3.02
6.17
10.61
15.38
19.49
22.20
23.15
22.63
21.90
22.44
25.26
29.94
35.95
42.64
49.52
56.06
59.21
56.46
46.96
35.52
24.07
13.64
4.06
-3.95
-10.04
-14.57
-18.03
-20.96
-23.59
-26.25
-28.04
-27.68
-24.81
-20.80
-17.87
-17.14
-18.27
-19.90
-21.30
-22.04
-22.23
-22.35
-22.72
-23.46
-24.11
-23.97
-22.47
-19.77
-16.15
-12.16
-8.43
-5.60
-4.03
-3.51
-3.56
-3.64
-3.61
-3.44
-3.23
-3.07
-2.98
-2.78
-2.17
-0.90
1.02
3.21
5.22
6.64
7.22
6.92
5.82
4.17
2.20
0.14
-1.83
-3.49
-4.66
-5.22
-5.13
-4.48
-3.43
-2.16
-0.85
0.30
1.16
1.67
1.88
2.01
2.47
3.72
6.16
9.95
14.90
20.59
26.38
31.52
35.21
36.72
35.55
31.66
25.51
18.05
10.62
4.45
0.19
-2.29
-3.76
-5.13
-6.99
-9.38
-11.87
-13.77
-14.52
-14.03
-12.73
-11.23
-10.03
-9.34
-9.08
-9.03
-8.70
-7.47
-4.85
-0.61
5.16
12.13
19.66
26.72
30.71
29.03
20.58
6.71
-9.47
-24.74
-36.86
-44.69
-48.02
-47.10
-42.29
-34.13
-23.59
-12.18
-1.61
6.82
12.67
16.22
18.08
18.75
18.38
16.80
13.90
10.03
6.09
3.18
2.05
2.72
4.59
6.84
8.78
10.09
10.94
11.67
12.61
13.66
14.39
14.30
13.27
11.61
9.94
8.91
8.55
8.41
7.73
5.73
2.01
-3.20
-9.25
-15.32
-20.56
-24.12
-25.03
-22.43
-15.72
-5.75
5.60
15.80
22.48
24.29
21.44
15.40
8.19
1.42
-4.08
-8.26
-11.41
-13.74
-15.26
-15.87
-15.57
-14.71
-13.80
-13.41
-13.71
-14.47
-15.16
-15.17
-14.20
-12.47
-10.30
-8.21
-6.57
-5.38
-4.40
-3.29
-1.83
-0.02
1.96
3.89
5.51
6.64
7.21
7.23
6.85
6.28
5.79
5.58
5.72
6.04
6.29
6.22
5.73
4.87
3.86
2.91
2.17
1.68
1.35
1.13
0.95
0.80
0.70
0.65
0.69
0.74
0.72
0.56
0.19
-0.37
-1.05
-1.73
-2.31
-2.73
-3.06
-3.47
-4.11
-5.07
-6.35
-7.85
-9.47
-11.09
-12.33
-13.00
-13.07
-12.66
-11.91
-11.01
-10.12
-9.35
-8.62
-7.68
-6.33
-4.48
-2.18
0.39
2.95
5.19
6.82
7.83
8.49
9.18
10.29
12.11
14.85
18.59
23.17
27.21
29.18
28.16
24.39
18.94
13.04
7.54
2.88
-0.80
-3.43
-5.07
-5.61
-4.97
-3.36
-1.26
0.77
2.23
2.83
2.35
1.03
-0.64
-2.21
-3.49
-4.51
-5.42
-6.38
-7.47
-8.68
-9.83
-10.75
-11.33
-11.59
-11.56
-11.18
-10.34
-8.88
-6.71
-3.83
-0.43
3.05
6.09
8.27
9.45
9.71
9.42
9.13
9.39
10.42
12.01
13.65
14.85
15.27
14.72
13.28
11.21
9.08
7.10
5.25
3.43
1.70
0.26
-0.88
-1.79
-2.57
-3.04
-3.48
-4.34
-6.00
-8.45
-11.43
-14.94
-19.03
-23.67
-28.26
-32.60
-36.73
-40.71
-44.30
-45.08
-41.38
-33.24
-24.10
-14.43
-4.11
7.06
18.27
28.48
36.76
42.16
44.30
42.12
36.31
28.44
20.34
12.97
6.43
0.40
-5.51
-11.10
-15.61
-17.67
-16.62
-12.72
-6.99
-0.62
5.32
9.91
12.62
13.42
13.01
12.11
11.41
10.97
10.81
10.81
10.65
9.90
8.18
5.54
2.23
-1.27
-4.39
-6.53
-7.35
-6.98
-5.89
-4.66
-3.57
-2.67
-1.81
-0.91
0.01
0.62
0.50
-0.68
-2.99
-6.16
-9.79
-13.55
-17.24
-20.62
-23.39
-25.11
-25.35
-23.95
-21.17
-17.59
-13.94
-10.78
-8.36
-6.68
-5.66
-5.19
-5.11
-5.12
-4.74
-3.50
-1.23
1.67
4.32
5.65
4.95
2.33
-1.23
-4.15
-4.95
-2.82
2.00
8.28
14.15
17.83
18.04
14.46
7.99
0.66
-4.42
-3.82
5.06
22.55
45.89
69.58
87.05
93.23
86.44
69.00
46.05
23.20
4.36
-9.12
-18.06
-24.09
-28.17
-30.47
-30.95
-29.62
-26.98
-24.42
-22.91
-22.72
-23.29
-23.48
-21.91
-18.04
-12.24
-5.65
0.26
4.46
6.64
7.27
7.17
6.91
6.48
5.57
3.89
1.57
-0.75
-2.19
-2.08
-0.25
2.78
5.82
7.73
8.10
7.27
5.67
3.39
0.30
-3.68
-8.33
-13.12
-17.34
-20.41
-22.04
-22.38
-21.83
-20.86
-19.87
-19.33
-18.94
-18.15
-16.38
-13.25
-8.85
-3.72
1.36
5.53
8.02
8.40
6.64
3.32
-0.37
-2.83
-2.47
1.76
9.86
20.52
31.24
39.02
41.55
38.03
29.48
18.21
6.91
-2.32
-8.44
-11.36
-11.55
-9.62
-6.22
-2.14
1.69
4.26
4.69
2.60
-1.57
-6.50
-10.44
-11.72
-9.44
-3.78
3.93
11.61
17.09
18.92
16.82
11.54
4.43
-3.17
-10.11
-15.50
-18.70
-19.29
-17.09
-12.34
-5.97
0.89
6.20
8.35
7.32
4.39
1.05
-1.92
-4.44
-6.94
-9.60
-12.23
-14.26
-15.18
-14.89
-13.81
-12.68
-11.89
-11.80
-12.37
-13.32
-14.03
-13.93
-12.67
-10.28
-7.07
-3.49
-0.10
2.58
4.10
4.29
3.38
2.01
1.11
1.68
4.44
9.46
16.10
23.08
28.98
32.59
33.33
31.36
27.51
23.01
19.00
16.31
15.19
15.38
16.35
17.51
18.45
18.96
18.98
18.42
17.20
15.27
12.69
9.69
6.54
3.51
0.68
-1.95
-4.46
-6.85
-9.01
-10.80
-12.14
-13.05
-13.67
-14.21
-14.82
-15.52
-16.25
-16.86
-17.22
-17.29
-17.13
-16.89
-16.67
-16.54
-16.37
-15.98
-15.15
-13.80
-11.95
-9.75
-7.37
-5.01
-2.90
-1.34
-0.65
-1.10
-2.71
-5.13
-7.71
-9.63
-10.24
-9.24
-6.87
-3.79
-0.88
1.14
1.88
1.44
0.33
-0.78
-1.31
-0.96
0.26
2.06
4.07
5.88
7.13
7.53
6.87
5.17
2.69
-0.07
-2.50
-4.10
-4.66
-4.28
-3.28
-2.04
-0.85
0.11
0.70
0.75
0.06
-1.39
-3.38
-5.27
-6.19
-5.27
-1.98
3.58
10.67
17.95
23.83
26.74
25.61
20.22
11.47
1.30
-7.77
-13.36
-14.07
-9.95
-2.46
6.14
13.67
18.68
20.69
20.01
17.32
13.33
8.70
3.98
-0.32
-3.81
-6.34
-8.00
-9.16
-10.19
-11.32
-12.49
-13.50
-14.19
-14.58
-14.90
-15.41
-16.22
-17.15
-17.76
-17.54
-16.18
-13.71
-10.42
-6.68
-2.93
0.30
2.21
1.98
-0.82
-5.78
-11.46
-15.73
-16.54
-12.97
-5.82
2.62
9.76
13.80
14.34
12.10
8.37
4.35
0.83
-1.77
-3.27
-3.23
-1.10
3.34
9.64
16.73
23.26
28.01
30.07
27.76
20.29
9.03
-2.62
-11.28
-15.42
-15.59
-13.70
-10.77
-6.93
-1.46
6.55
17.33
30.04
42.20
49.74
49.28
40.00
24.38
7.13
-7.31
-16.70
-21.34
-23.12
-24.42
-25.91
-27.02
-26.99
-25.43
-22.68
-19.65
-17.41
-16.75
-17.50
-18.96
-20.20
-20.61
-20.01
-18.68
-17.13
-15.72
-14.53
-13.22
-11.20
-8.05
-3.85
0.82
5.02
7.95
9.19
8.92
7.84
6.91
7.00
8.53
11.42
15.14
18.96
22.15
24.19
24.78
23.94
21.87
18.95
15.57
12.10
8.87
6.07
3.85
2.29
1.47
1.46
2.36
4.22
7.00
10.47
14.14
17.26
19.04
18.82
16.42
12.22
7.10
2.11
-1.88
-4.38
-5.41
-5.25
-4.29
-2.85
-1.11
0.73
2.38
3.45
3.55
2.50
0.42
-2.31
-5.16
-7.73
-9.86
-11.65
-13.35
-15.20
-17.28
-19.53
-21.77
-23.82
-25.54
-26.79
-27.44
-27.36
-26.45
-24.67
-22.13
-19.09
-15.89
-12.95
-10.53
-8.71
-7.24
-5.60
-3.17
0.48
5.44
11.34
17.46
22.95
27.14
29.60
30.30
29.48
27.58
25.09
22.46
19.96
17.65
15.37
12.92
10.14
7.08
4.01
1.39
-0.34
-0.83
-0.02
1.86
4.36
6.86
8.82
9.88
9.96
9.31
8.29
7.29
6.54
5.98
5.35
4.30
2.59
0.22
-2.52
-5.17
-7.25
-8.51
-8.94
-8.82
-8.46
-8.07
-7.65
-7.04
-6.13
-4.96
-3.84
-3.21
-3.46
-4.69
-6.68
-8.97
-11.07
-12.64
-13.64
-14.25
-14.72
-15.25
-15.87
-16.48
-16.97
-17.22
-17.19
-16.83
-16.09
-14.91
-13.24
-11.17
-8.91
-6.85
-5.37
-4.75
-5.01
-5.76
-6.33
-5.86
-3.68
0.43
6.09
12.39
18.14
22.29
24.21
23.86
21.69
18.42
14.83
11.60
9.23
8.00
7.92
8.72
9.88
10.73
10.68
9.41
7.06
4.16
1.39
-0.60
-1.52
-1.42
-0.64
0.38
1.23
1.65
1.46
0.56
-1.06
-3.24
-5.58
-7.49
-8.37
-7.88
-6.19
-3.88
-1.74
-0.43
-0.13
-0.59
-1.29
-1.71
-1.66
-1.26
-0.82
-0.64
-0.88
-1.48
-2.26
-3.05
-3.69
-4.15
-4.45
-4.67
-4.91
-5.30
-5.87
-6.63
-7.49
-8.31
-8.98
-9.35
-9.32
-8.83
-7.88
-6.55
-5.04
-3.64
-2.62
-2.10
-1.96
-1.82
-1.24
0.13
2.33
5.09
7.99
10.64
12.79
14.39
15.44
15.99
16.07
15.73
15.04
14.14
13.16
12.19
11.27
10.37
9.44
8.43
7.28
6.02
4.71
3.55
2.78
2.58
2.98
3.77
4.63
5.27
5.60
5.71
5.80
6.04
6.43
6.84
7.08
7.02
6.65
5.95
4.92
3.42
1.33
-1.43
-4.65
-7.90
-10.52
-11.93
-11.85
-10.44
-8.30
-6.23
-4.94
-4.82
-5.88
-7.77
-10.02
-12.24
-14.14
-15.57
-16.49
-16.84
-16.68
-16.14
-15.46
-14.90
-14.62
-14.61
-14.70
-14.62
-14.13
-13.10
-11.57
-9.68
-7.64
-5.63
-3.76
-2.04
-0.36
1.49
3.75
6.62
10.06
13.75
17.10
19.46
20.36
19.77
18.16
16.28
14.84
14.25
14.46
15.07
15.57
15.49
14.52
12.52
9.46
5.57
1.32
-2.60
-5.40
-6.53
-5.91
-3.99
-1.55
0.57
1.83
2.11
1.68
0.99
0.46
0.33
0.57
1.07
1.73
2.59
3.77
5.26
6.75
7.56
6.90
4.28
-0.09
-5.22
-9.67
-12.18
-12.22
-10.17
-7.08
-4.11
-2.08
-1.26
-1.48
-2.40
-3.76
-5.43
-7.32
-9.35
-11.36
-13.14
-14.54
-15.44
-15.85
-15.84
-15.50
-14.90
-14.02
-12.76
-11.00
-8.73
-6.10
-3.45
-1.15
0.55
1.74
2.87
4.54
7.26
11.17
15.93
20.78
24.83
27.31
27.84
26.45
23.66
20.24
17.01
14.64
13.44
13.30
13.79
14.32
14.38
13.69
12.23
10.24
7.98
5.73
3.68
1.94
0.56
-0.48
-1.22
-1.75
-2.15
-2.43
-2.55
-2.49
-2.32
-2.23
-2.50
-3.33
-4.70
-6.35
-7.83
-8.71
-8.78
-8.14
-7.14
-6.16
-5.47
-5.07
-4.76
-4.26
-3.40
-2.19
-0.86
0.27
0.87
0.77
-0.04
-1.37
-2.94
-4.48
-5.77
-6.78
-7.56
-8.26
-8.96
-9.69
-10.31
-10.64
-10.46
-9.66
-8.24
-6.34
-4.23
-2.26
-0.81
-0.18
-0.43
-1.23
-1.92
-1.66
0.22
3.88
8.79
13.88
17.87
19.81
19.40
17.06
13.71
10.39
7.85
6.44
6.04
6.28
6.69
6.87
6.51
5.46
3.70
1.37
-1.25
-3.76
-5.74
-6.88
-7.06
-6.42
-5.23
-3.87
-2.72
-2.02
-1.87
-2.19
-2.78
-3.39
-3.84
-4.05
-4.09
-4.06
-3.92
-3.55
-2.75
-1.41
0.32
2.06
3.32
3.73
3.23
2.08
0.77
-0.28
-0.91
-1.22
-1.55
-2.17
-3.18
-4.43
-5.62
-6.45
-6.82
-6.83
-6.79
-7.03
-7.76
-8.97
-10.45
-11.82
-12.69
-12.73
-11.75
-9.75
-6.96
-3.81
-0.90
1.13
1.80
1.03
-0.78
-2.81
-4.03
-3.58
-1.11
3.13
8.31
13.36
17.32
19.64
20.20
19.30
17.38
14.86
12.11
9.42
7.06
5.24
4.04
3.36
2.83
2.02
0.58
-1.52
-4.01
-6.39
-8.20
-9.20
-9.41
-9.05
-8.38
-7.56
-6.69
-5.79
-4.95
-4.28
-3.89
-3.74
-3.64
-3.34
-2.62
-1.49
-0.21
0.85
1.32
1.05
0.16
-0.99
-2.00
-2.57
-2.62
-2.25
-1.70
-1.20
-0.95
-1.07
-1.60
-2.51
-3.72
-5.07
-6.42
-7.63
-8.66
-9.48
-10.10
-10.48
-10.53
-10.14
-9.24
-7.83
-6.03
-4.03
-2.10
-0.51
0.49
0.79
0.48
-0.14
-0.54
-0.17
1.40
4.28
8.21
12.63
16.82
20.10
21.98
22.23
20.94
18.41
15.18
11.79
8.81
6.59
5.21
4.48
3.89
2.89
1.01
-1.85
-5.40
-8.93
-11.62
-12.83
-12.31
-10.32
-7.53
-4.69
-2.42
-0.98
-0.32
-0.19
-0.31
-0.49
-0.61
-0.61
-0.39
0.10
0.84
1.69
2.41
2.74
2.55
1.88
0.93
-0.02
-0.76
-1.14
-1.14
-0.84
-0.36
0.08
0.22
-0.12
-1.02
-2.36
-3.85
-5.20
-6.19
-6.81
-7.18
-7.46
-7.73
-7.96
-8.05
-7.92
-7.53
-6.88
-5.99
-4.93
-3.80
-2.82
-2.24
-2.24
-2.77
-3.50
-3.93
-3.57
-2.17
0.16
2.95
5.61
7.60
8.61
8.61
7.75
6.32
4.65
3.05
1.79
1.03
0.80
1.00
1.36
1.62
1.55
1.03
0.11
-1.08
-2.33
-3.42
-4.17
-4.47
-4.27
-3.65
-2.79
-1.92
-1.26
-0.99
-1.13
-1.60
-2.20
-2.67
-2.76
-2.32
-1.37
-0.12
1.10
1.92
2.09
1.57
0.57
-0.54
-1.34
-1.49
-0.87
0.38
1.90
3.20
3.88
3.71
2.77
1.35
-0.13
-1.30
-2.00
-2.25
-2.24
-2.19
-2.24
-2.48
-2.85
-3.28
-3.66
-3.85
-3.74
-3.21
-2.28
-1.09
0.02
0.75
0.90
0.58
0.24
0.54
2.07
5.05
9.21
13.81
17.89
20.53
21.20
19.89
17.06
13.46
9.90
7.04
5.19
4.35
4.26
4.57
4.92
5.04
4.72
3.84
2.41
0.55
-1.43
-3.08
-3.95
-3.80
-2.67
-0.94
0.81
2.06
2.51
2.15
1.12
-0.44
-2.52
-5.13
-8.12
-10.93
-12.70
-12.59
-10.21
-5.94
-0.92
3.48
6.18
6.86
5.94
4.28
2.68
1.53
0.82
0.32
-0.19
-0.74
-1.26
-1.66
-1.97
-2.30
-2.82
-3.62
-4.68
-5.81
-6.81
-7.47
-7.67
-7.42
-6.77
-5.84
-4.74
-3.52
-2.27
-1.13
-0.33
-0.14
-0.76
-2.12
-3.84
-5.23
-5.51
-4.03
-0.61
4.41
10.25
15.92
20.58
23.72
25.18
25.03
23.43
20.59
16.74
12.26
7.60
3.26
-0.44
-3.40
-5.75
-7.74
-9.54
-11.09
-12.18
-12.57
-12.13
-10.97
-9.37
-7.68
-6.15
-4.96
-4.17
-3.88
-4.23
-5.33
-7.12
-9.16
-10.74
-11.11
-9.86
-7.22
-4.00
-1.27
0.10
-0.11
-1.47
-3.10
-4.14
-4.10
-3.09
-1.68
-0.64
-0.56
-1.66
-3.69
-6.03
-7.99
-9.13
-9.39
-9.16
-9.01
-9.41
-10.48
-11.89
-13.04
-13.33
-12.31
-9.84
-6.02
-1.22
3.97
8.62
11.62
11.93
9.22
4.28
-0.94
-3.98
-2.92
2.65
11.34
20.58
27.76
31.37
31.44
29.15
25.97
22.83
19.85
16.68
13.02
9.06
5.40
2.64
1.01
0.11
-0.84
-2.59
-5.44
-9.00
-12.36
-14.48
-14.60
-12.61
-8.98
-4.58
-0.43
2.60
3.86
3.03
0.26
-3.77
-7.93
-10.95
-11.91
-10.67
-7.87
-4.65
-1.99
-0.17
1.19
2.85
5.34
8.58
11.87
14.34
15.40
15.08
13.91
12.52
11.30
10.15
8.64
6.37
3.31
-0.10
-3.06
-4.80
-4.96
-3.78
-1.98
-0.49
-0.04
-1.01
-3.37
-6.74
-10.55
-14.05
-16.41
-16.79
-14.69
-10.13
-3.91
2.62
7.98
11.10
11.72
10.41
8.24
6.22
4.97
4.52
4.50
4.46
4.11
3.42
2.55
1.65
0.73
-0.32
-1.66
-3.34
-5.22
-7.06
-8.57
-9.57
-10.07
-10.21
-10.14
-9.92
-9.50
-8.77
-7.70
-6.42
-5.17
-4.20
-3.56
-3.10
-2.47
-1.35
0.41
2.60
4.77
6.35
6.91
6.27
4.64
2.47
0.33
-1.20
-1.76
-1.22
0.24
2.16
3.94
4.98
4.84
3.39
0.87
-2.18
-5.05
-7.03
-7.63
-6.65
-4.22
-0.80
2.83
5.69
6.84
5.78
2.73
-1.27
-4.71
-6.17
-4.93
-1.22
3.88
9.01
13.09
15.60
16.59
16.35
15.15
13.09
10.30
7.07
3.96
1.65
0.75
1.42
3.33
5.69
7.42
7.49
5.26
0.71
-5.39
-11.57
-15.99
-17.11
-14.30
-8.32
-1.18
4.69
7.43
6.57
3.11
-1.15
-4.56
-6.41
-6.99
-7.03
-7.03
-6.87
-5.97
-3.87
-0.75
2.59
5.10
6.08
5.59
4.32
3.19
2.83
3.30
4.10
4.47
3.79
1.90
-0.85
-3.70
-5.77
-6.37
-5.21
-2.46
1.27
5.09
8.00
9.09
7.72
3.81
-1.93
-8.04
-12.59
-13.82
-10.86
-4.14
4.73
13.53
20.36
24.21
25.14
23.90
21.40
18.26
14.73
10.93
7.01
3.32
0.22
-2.15
-3.94
-5.57
-7.41
-9.61
-11.91
-13.80
-14.73
-14.35
-12.69
-10.10
-7.21
-4.62
-2.80
-1.94
-1.93
-2.40
-2.83
-2.73
-1.81
-0.12
1.92
3.70
4.61
4.36
3.12
1.40
-0.12
-0.93
-0.86
-0.14
0.82
1.65
2.16
2.36
2.35
2.16
1.74
0.96
-0.23
-1.66
-3.04
-3.99
-4.29
-3.96
-3.27
-2.63
-2.40
-2.77
-3.73
-5.05
-6.44
-7.65
-8.55
-9.14
-9.53
-9.83
-10.12
-10.46
-10.83
-11.18
-11.41
-11.44
-11.20
-10.71
-10.15
-9.71
-9.60
-9.82
-10.11
-10.07
-9.28
-7.54
-4.96
-1.97
0.91
3.24
4.85
5.71
5.87
5.28
3.82
1.45
-1.57
-4.60
-6.85
-7.58
-6.53
-3.90
-0.21
4.02
8.42
12.61
15.90
17.15
15.24
9.66
1.24
-7.91
-15.10
-18.19
-16.55
-11.18
-4.14
2.52
7.53
10.62
12.17
12.68
12.51
11.80
10.69
9.46
8.47
7.93
7.86
8.10
8.44
8.69
8.81
8.85
8.82
8.67
8.21
7.18
5.36
2.68
-0.67
-4.16
-7.03
-8.47
-7.94
-5.38
-1.38
3.04
6.73
8.82
9.06
7.80
5.72
3.51
1.53
-0.24
-1.99
-3.90
-5.84
-7.48
-8.43
-8.54
-8.07
-7.57
-7.61
-8.50
-10.09
-11.73
-12.53
-11.65
-8.62
-3.64
2.36
7.86
11.13
10.82
6.42
-1.34
-10.62
-18.90
-23.80
-23.83
-18.99
-10.67
-1.21
7.03
12.46
14.75
14.67
13.48
12.20
11.07
9.58
6.88
2.48
-3.20
-8.88
-12.96
-14.25
-12.59
-8.86
-4.55
-0.93
1.33
2.27
2.16
1.10
-1.14
-4.66
-8.85
-12.31
-13.61
-12.38
-9.88
-8.37
-9.68
-13.80
-18.53
-20.60
-17.61
-9.61
0.81
10.13
15.98
18.21
18.57
19.26
21.49
24.87
27.67
27.15
21.13
9.10
-6.76
-22.16
-32.58
-35.16
-29.72
-18.69
-5.98
4.76
11.70
15.22
17.04
18.80
20.93
22.60
22.42
19.53
14.41
8.63
3.94
1.37
0.81
1.40
2.31
3.18
4.07
5.32
7.06
8.78
9.61
8.70
5.90
1.93
-1.93
-4.46
-5.01
-3.90
-2.24
-1.47
-2.73
-6.20
-10.94
-15.18
-16.94
-14.56
-7.24
4.67
19.58
34.38
45.04
48.52
43.83
32.36
17.38
2.72
-8.60
-15.32
-17.98
-18.15
-17.34
-16.47
-15.79
-15.26
-14.92
-15.00
-15.70
-16.96
-18.28
-18.84
-17.98
-15.59
-12.26
-9.04
-7.22
-7.40
-9.53
-12.72
-15.49
-16.30
-14.21
-9.35
-2.85
3.52
8.10
9.94
9.19
6.93
4.60
3.32
3.49
4.75
6.30
7.32
7.28
6.10
4.11
1.74
-0.66
-2.99
-5.30
-7.60
-9.62
-10.82
-10.49
-8.06
-3.38
3.24
10.72
17.67
22.74
25.11
24.56
21.53
17.03
12.35
8.84
7.48
8.68
12.13
16.86
21.51
24.72
25.43
23.09
17.73
10.04
1.31
-6.72
-12.27
-14.04
-11.69
-6.10
0.81
6.68
9.48
8.24
3.31
-3.79
-11.01
-16.41
-18.72
-17.60
-13.63
-8.27
-3.57
-1.78
-4.61
-12.45
-23.69
-34.91
-41.95
-41.59
-33.06
-18.53
-2.18
11.54
19.78
22.03
19.79
15.26
10.22
5.46
1.08
-2.87
-5.98
-7.49
-6.87
-4.23
-0.61
2.42
3.39
1.63
-2.39
-7.22
-11.02
-12.38
-10.87
-7.17
-2.68
1.17
3.48
4.16
3.70
2.83
2.11
1.85
2.19
3.19
4.88
7.09
9.40
11.17
11.81
11.15
9.52
7.61
6.17
5.54
5.59
5.86
5.87
5.47
4.84
4.32
4.11
4.05
3.66
2.41
0.01
-3.30
-6.82
-9.61
-10.88
-10.29
-8.01
-4.62
-0.91
2.18
3.72
2.88
-0.72
-6.63
-13.46
-19.17
-21.76
-20.15
-14.69
-7.06
0.49
6.07
8.82
8.99
7.53
5.45
3.46
1.83
0.62
-0.16
-0.42
-0.02
1.03
2.58
4.18
5.28
5.36
4.20
1.97
-0.71
-3.01
-4.15
-3.75
-1.98
0.57
3.10
4.82
5.17
3.91
1.22
-2.28
-5.57
-7.41
-6.74
-3.13
2.90
9.88
15.92
19.34
19.38
16.41
11.73
6.90
3.14
0.91
0.02
-0.01
0.38
0.99
1.73
2.40
2.60
1.80
-0.30
-3.59
-7.37
-10.71
-12.77
-13.13
-11.92
-9.68
-7.08
-4.69
-2.91
-2.03
-2.21
-3.43
-5.36
-7.39
-8.70
-8.67
-7.14
-4.59
-1.90
0.06
0.80
0.46
-0.43
-1.23
-1.56
-1.44
-1.15
-0.97
-0.99
-1.05
-0.88
-0.29
0.66
1.65
2.22
2.02
0.98
-0.61
-2.19
-3.18
-3.22
-2.31
-0.82
0.66
1.53
1.33
-0.07
-2.40
-4.96
-6.73
-6.63
-3.90
1.42
8.39
15.29
20.16
21.52
18.92
13.18
6.04
-0.49
-4.83
-6.35
-5.40
-2.94
-0.07
2.41
4.15
5.18
5.60
5.45
4.61
2.96
0.55
-2.34
-5.18
-7.44
-8.77
-9.11
-8.70
-7.85
-6.86
-5.89
-5.02
-4.38
-4.20
-4.75
-6.11
-7.97
-9.75
-10.74
-10.50
-9.10
-7.05
-5.02
-3.52
-2.66
-2.22
-1.88
-1.44
-0.89
-0.26
0.53
1.71
3.59
6.26
9.47
12.56
14.63
14.87
12.87
8.84
3.62
-1.56
-5.49
-7.34
-6.95
-4.77
-1.57
1.83
4.88
7.23
8.66
8.93
7.83
5.42
2.12
-1.20
-3.58
-4.32
-3.30
-1.08
1.45
3.47
4.58
4.84
4.60
4.18
3.74
3.19
2.35
1.12
-0.33
-1.64
-2.43
-2.50
-1.95
-1.12
-0.54
-0.76
-2.09
-4.44
-7.24
-9.74
-11.21
-11.24
-9.76
-7.30
-4.90
-3.73
-4.51
-7.17
-10.83
-14.13
-15.69
-14.61
-11.09
-6.60
-3.10
-1.95
-3.20
-5.66
-7.55
-7.25
-3.72
2.96
11.59
20.38
27.59
31.62
30.92
24.29
10.54
-8.16
-25.73
-35.46
-34.40
-24.53
-10.67
2.32
11.62
16.93
19.86
22.07
23.93
24.52
22.69
18.15
11.87
5.74
1.87
1.78
5.46
11.10
15.95
17.65
15.28
9.67
2.90
-2.65
-5.29
-4.71
-2.16
0.59
2.19
2.21
1.14
-0.16
-0.97
-1.09
-0.90
-1.09
-2.16
-4.03
-6.02
-7.16
-6.76
-4.70
-1.53
1.82
4.47
5.93
6.28
5.94
5.38
4.75
3.95
2.76
1.13
-0.71
-2.24
-2.88
-2.46
-1.26
0.08
0.98
1.24
1.16
1.40
2.59
5.01
8.45
12.26
15.69
18.00
18.69
17.49
14.38
9.68
4.04
-1.60
-6.18
-8.83
-9.21
-7.67
-5.12
-2.71
-1.40
-1.58
-2.94
-4.69
-5.84
-5.65
-3.77
-0.43
3.67
7.61
10.45
11.54
10.60
7.82
3.69
-1.10
-5.85
-9.99
-13.14
-15.10
-15.91
-15.76
-14.99
-13.94
-12.84
-11.84
-11.07
-10.69
-10.79
-11.40
-12.34
-13.25
-13.63
-13.05
-11.32
-8.81
-6.13
-3.84
-2.26
-1.44
-1.34
-1.88
-2.98
-4.47
-6.43
-8.78
-11.17
-13.15
-14.42
-14.93
-14.88
-14.47
-13.78
-13.14
-12.76
-12.73
-13.12
-14.22
-16.56
-20.56
-26.10
-29.79
-28.64
-21.41
-9.12
6.15
22.28
37.34
49.51
57.38
60.09
57.19
49.18
37.52
24.33
11.65
0.85
-7.51
-13.47
-17.21
-19.11
-19.24
-17.47
-13.75
-8.56
-3.02
1.40
3.46
2.78
-0.24
-4.35
-8.08
-10.23
-10.37
-8.75
-6.11
-3.15
-0.18
2.68
5.39
7.80
9.73
11.01
11.89
12.75
14.11
16.36
19.42
22.65
24.79
24.43
19.69
10.57
-1.51
-14.08
-24.60
-31.27
-33.58
-32.17
-28.21
-22.80
-16.49
-9.74
-3.03
3.03
7.98
11.78
14.89
18.01
21.49
25.04
27.73
28.61
27.23
23.92
19.83
15.66
12.07
9.38
7.65
6.71
6.30
6.12
5.87
5.29
4.22
2.82
1.49
0.70
0.83
1.94
3.83
6.07
8.25
10.03
11.30
12.06
12.29
11.97
11.07
9.63
7.85
5.95
4.04
2.11
0.60
-0.09
0.60
3.13
7.81
14.54
22.44
30.02
35.58
37.99
37.09
33.74
28.94
23.64
18.36
12.99
6.98
-0.20
-8.60
-17.74
-26.88
-36.05
-45.38
-54.79
-63.79
-71.63
-77.53
-80.84
-81.30
-79.20
-76.19
-73.69
-72.33
-71.88
-71.84
-71.89
-71.96
-72.01
-66.29
-52.01
-30.20
-4.81
19.94
40.91
55.93
63.86
65.00
61.03
53.57
44.47
35.39
27.45
21.09
16.32
13.02
11.58
12.27
14.22
16.28
17.56
17.70
16.82
15.37
13.95
13.16
13.18
13.43
13.29
12.50
11.22
10.04
9.38
9.51
10.48
12.03
13.56
14.57
14.83
14.50
14.00
13.83
14.38
15.73
17.42
18.46
17.70
14.33
8.25
0.26
-8.05
-14.66
-17.81
-16.56
-11.21
-3.11
5.83
13.82
19.65
22.73
22.87
20.03
14.24
5.85
-4.21
-14.45
-23.16
-29.16
-32.23
-33.15
-33.24
-33.58
-34.59
-35.93
-36.89
-36.76
-35.10
-31.69
-26.42
-19.31
-10.61
-1.02
8.31
15.98
20.80
22.22
20.57
16.91
12.63
8.97
6.66
5.86
6.24
7.11
7.73
7.46
5.95
3.29
0.04
-2.88
-4.50
-4.19
-1.91
1.67
5.45
8.27
9.43
8.92
7.40
5.94
5.56
6.76
9.28
12.23
14.44
15.01
13.76
11.36
8.99
7.82
8.45
10.68
13.69
16.54
18.51
19.29
18.84
17.29
14.89
12.19
10.00
9.10
9.89
11.95
14.06
14.69
12.68
7.83
0.94
-6.63
-13.59
-19.16
-23.16
-25.79
-27.27
-27.71
-27.21
-26.02
-24.69
-23.96
-24.47
-26.32
-28.95
-31.28
-32.16
-30.87
-27.42
-22.66
-17.86
-14.04
-11.36
-9.19
-6.71
-3.71
-0.98
0.02
-2.25
-8.53
-18.10
-28.65
-37.12
-40.82
-38.41
-30.27
-18.08
-4.39
8.01
16.89
21.04
20.33
15.47
7.79
-0.86
-7.31
-7.97
-1.33
10.45
22.99
32.22
36.15
35.75
32.92
29.74
27.69
27.12
27.52
28.24
28.41
27.62
25.60
22.33
18.24
14.03
10.31
7.61
6.39
6.67
7.85
8.62
7.60
4.25
-1.04
-7.22
-13.05
-17.55
-20.36
-20.71
-18.95
-16.35
-14.01
-12.24
-10.93
-9.90
-9.07
-8.43
-7.92
-7.63
-7.62
-7.99
-8.47
-8.84
-8.86
-8.20
-6.53
-3.75
-0.25
3.26
6.01
7.40
7.01
4.67
0.72
-3.85
-7.63
-9.20
-7.64
-2.83
4.43
12.58
19.89
25.22
28.35
29.97
30.93
31.65
31.61
29.62
24.36
15.26
3.13
-9.90
-20.94
-27.57
-28.76
-25.18
-18.71
-11.61
-5.72
-1.98
-0.49
-0.83
-2.60
-5.58
-9.53
-13.80
-16.65
-16.24
-12.30
-6.82
-2.48
-1.04
-2.57
-5.68
-8.40
-9.10
-7.38
-3.51
1.78
7.69
13.56
18.83
23.02
25.85
26.11
23.69
19.02
12.85
6.15
0.01
-4.56
-6.93
-7.11
-5.83
-4.15
-3.20
-3.57
-5.06
-6.83
-8.11
-8.53
-8.37
-8.39
-9.33
-11.75
-15.51
-19.72
-23.04
-24.21
-22.59
-18.38
-12.52
-5.92
0.10
4.54
7.01
7.71
7.16
5.98
4.75
3.88
3.69
4.25
5.48
7.11
8.74
9.97
10.63
10.90
11.05
11.27
11.41
11.20
10.29
8.46
5.82
3.00
0.95
0.51
2.07
5.32
9.51
13.63
16.73
18.14
17.73
15.98
13.64
11.48
10.14
9.98
10.86
12.04
11.77
8.64
3.13
-2.10
-4.00
-1.22
4.97
11.43
15.11
14.08
8.25
-0.80
-10.85
-20.19
-27.65
-32.67
-35.27
-35.70
-34.22
-30.92
-25.98
-20.04
-14.36
-10.38
-9.05
-10.21
-12.47
-13.77
-12.29
-7.39
0.01
7.79
13.73
16.37
15.57
12.20
7.59
2.98
-0.76
-3.15
-3.93
-3.11
-0.97
1.98
5.16
8.13
10.70
12.75
14.16
14.70
13.99
11.84
8.44
4.29
-0.03
-4.16
-7.96
-11.12
-12.99
-12.80
-10.07
-5.16
0.73
5.88
8.79
8.69
6.01
2.08
-1.61
-3.90
-4.26
-2.74
0.41
4.94
9.71
13.04
13.70
11.57
7.55
2.93
-1.56
-5.39
-8.30
-10.34
-11.61
-11.79
-10.82
-8.82
-6.04
-2.81
0.53
3.51
5.51
5.94
4.37
0.59
-5.19
-12.29
-19.53
-25.42
-28.51
-27.76
-22.79
-14.12
-3.11
8.33
18.26
25.10
28.15
27.62
24.47
20.04
15.61
12.06
9.78
8.63
7.92
6.86
5.05
2.73
0.76
-0.05
0.87
3.67
8.08
13.23
18.18
22.27
25.20
26.85
26.82
24.86
21.05
15.91
9.57
1.97
-6.75
-16.10
-25.25
-33.67
-40.92
-46.69
-50.67
-53.36
-55.22
-55.95
-54.50
-47.10
-32.43
-12.77
5.68
20.58
31.31
37.77
39.95
37.97
32.01
21.96
8.49
-6.49
-19.86
-29.09
-32.82
-31.13
-25.34
-17.48
-9.76
-3.58
0.65
3.33
4.43
3.72
1.19
-2.62
-6.66
-9.91
-11.53
-11.07
-8.47
-4.37
0.21
4.33
7.21
8.37
7.62
5.34
2.43
0.22
-0.27
1.34
4.75
9.09
13.32
16.55
18.31
18.56
17.57
15.71
13.34
10.88
8.76
7.41
7.14
8.04
9.96
12.45
14.92
16.72
17.39
16.76
15.09
12.87
10.67
8.80
7.28
5.84
4.21
2.32
0.39
-1.22
-2.21
-2.56
-2.51
-2.46
-2.80
-3.84
-5.77
-8.62
-12.22
-16.09
-19.49
-21.52
-21.47
-19.18
-15.07
-10.08
-5.29
-1.55
0.65
1.10
-0.28
-3.52
-8.52
-14.84
-21.48
-27.06
-30.08
-29.46
-24.88
-17.00
-7.14
3.09
12.30
19.57
24.54
27.20
27.76
26.49
23.75
20.09
16.22
12.92
10.81
10.23
11.13
13.11
15.52
17.56
18.46
17.71
15.19
11.26
6.67
2.25
-1.32
-3.63
-4.50
-3.88
-1.92
0.94
3.84
5.62
5.19
2.07
-3.37
-9.98
-16.36
-21.41
-24.67
-26.29
-26.68
-26.20
-25.03
-23.18
-20.68
-17.66
-14.27
-10.71
-7.21
-4.05
-1.60
-0.12
0.34
0.08
-0.25
0.14
1.86
4.98
9.05
13.25
16.79
19.01
19.42
17.61
13.36
6.65
-2.19
-12.22
-21.85
-29.06
-32.04
-29.98
-23.41
-13.88
-3.49
5.78
12.58
16.45
17.77
17.27
15.60
13.17
10.60
8.67
8.17
9.62
13.08
18.09
23.65
28.41
29.59
25.28
16.00
4.84
-4.60
-10.35
-12.35
-11.83
-10.15
-8.06
-5.18
-0.71
5.59
12.94
19.38
22.90
22.42
18.24
11.86
5.39
0.61
-1.74
-2.15
-1.79
-1.60
-1.79
-1.93
-1.45
-0.03
2.16
4.47
5.92
5.54
2.93
-1.52
-6.89
-12.05
-16.05
-18.17
-18.01
-14.75
-8.73
-1.58
4.56
7.87
8.20
5.79
1.12
-5.14
-12.08
-18.79
-24.32
-27.79
-28.77
-27.44
-24.67
-21.41
-18.23
-15.02
-11.25
-6.41
-0.43
5.99
11.65
15.36
16.68
16.18
15.21
15.14
16.63
19.42
22.46
24.45
24.33
21.62
16.40
9.45
1.90
-5.07
-10.69
-14.72
-17.37
-19.09
-20.16
-20.49
-19.24
-15.31
-8.43
0.21
8.14
12.57
11.63
5.15
-5.60
-17.98
-28.94
-36.11
-38.23
-35.03
-26.82
-14.57
1.08
16.25
25.85
27.20
21.72
13.26
5.44
-0.03
-3.56
-6.17
-8.97
-12.09
-14.75
-16.14
-15.65
-13.51
-10.34
-6.85
-3.75
-1.84
-1.36
-1.95
-3.01
-4.04
-4.80
-5.01
-4.51
-3.42
-2.12
-0.74
0.98
3.25
5.89
8.30
10.10
11.14
11.42
11.03
10.37
9.99
10.28
11.21
12.56
14.68
18.11
23.12
29.40
36.14
42.23
46.36
47.27
42.13
30.60
15.86
2.84
-5.12
-7.92
-7.85
-6.73
-5.37
-3.46
0.02
5.73
12.94
19.45
22.56
20.38
12.82
1.54
-10.67
-20.79
-27.03
-29.48
-29.66
-29.18
-28.85
-28.41
-27.20
-24.84
-21.41
-17.57
-14.29
-12.30
-11.57
-11.34
-10.61
-8.78
-5.92
-2.53
0.72
3.33
5.15
6.40
7.46
8.55
9.62
10.28
9.99
8.24
4.74
-0.32
-6.09
-11.18
-14.14
-14.07
-11.10
-6.29
-1.24
2.63
4.61
4.82
3.87
2.45
1.03
-0.22
-1.21
-1.76
-1.56
-0.35
1.93
5.03
8.38
11.35
13.37
14.15
13.73
12.45
10.80
9.19
7.73
6.26
4.49
2.30
-0.07
-2.13
-3.32
-3.39
-2.56
-1.48
-0.93
-1.47
-3.24
-5.91
-8.85
-11.42
-13.11
-13.68
-13.15
-11.75
-9.87
-8.01
-6.69
-6.35
-7.25
-9.42
-12.59
-16.17
-19.40
-21.42
-21.48
-19.13
-14.33
-7.58
0.19
7.81
14.14
18.29
19.77
18.44
14.34
7.70
-0.96
-10.59
-19.49
-25.60
-27.17
-23.57
-15.68
-5.68
3.87
11.10
15.45
17.69
19.16
20.91
23.08
25.00
25.64
24.26
20.87
16.12
11.13
7.00
4.51
3.90
4.85
6.60
8.30
9.32
9.56
9.39
9.36
9.76
10.43
10.87
10.65
9.71
8.37
7.06
5.91
4.56
2.41
-0.99
-5.58
-10.74
-15.53
-19.15
-21.14
-21.42
-20.20
-17.79
-14.65
-11.40
-8.80
-7.59
-8.16
-10.44
-13.85
-17.54
-20.66
-22.62
-23.12
-22.15
-19.85
-16.40
-12.03
-6.97
-1.55
3.85
8.82
12.92
15.69
16.55
14.88
10.30
3.02
-5.85
-14.36
-20.29
-21.92
-18.83
-12.04
-3.68
3.95
9.18
11.51
11.51
10.29
8.91
8.06
7.98
8.68
10.12
12.31
15.22
18.63
22.05
24.75
26.01
25.35
22.76
18.81
14.45
10.71
8.26
7.14
6.78
6.41
5.65
4.87
5.01
6.95
10.72
15.18
18.37
18.48
14.78
8.09
0.28
-6.66
-11.54
-14.30
-15.69
-16.49
-17.05
-17.26
-16.99
-16.53
-16.66
-18.26
-21.70
-26.39
-30.83
-33.13
-31.89
-26.83
-18.96
-10.25
-2.73
2.20
4.31
4.39
3.75
3.51
4.21
5.67
7.27
8.28
8.20
6.84
4.42
1.48
-1.25
-3.02
-3.34
-2.24
-0.23
1.90
3.46
4.24
4.48
4.65
5.05
5.60
5.87
5.42
4.11
2.29
0.59
-0.33
-0.12
1.20
3.27
5.63
7.93
9.97
11.75
13.30
14.60
15.51
15.88
15.73
15.44
15.69
17.23
20.33
24.51
28.41
30.33
28.82
23.45
15.01
5.23
-3.80
-10.43
-13.84
-14.16
-12.21
-9.16
-6.17
-4.08
-3.35
-3.96
-5.55
-7.52
-9.30
-10.59
-11.49
-12.51
-14.29
-17.26
-21.21
-25.16
-27.62
-27.14
-22.95
-15.33
-5.64
4.08
11.73
15.59
14.74
9.13
-0.39
-12.21
-24.14
-33.91
-39.78
-41.00
-37.92
-31.77
-23.99
-15.77
-7.77
-0.32
6.30
11.67
15.25
16.71
16.18
14.32
12.15
10.66
10.49
11.72
14.01
16.75
19.32
21.24
22.28
22.40
21.69
20.30
18.36
16.00
13.46
11.19
9.81
9.95
11.85
15.00
18.09
19.42
17.60
12.21
4.14
-4.75
-12.36
-17.20
-18.85
-18.01
-16.02
-14.30
-13.89
-15.23
-18.15
-21.88
-25.22
-26.81
-25.59
-21.27
-14.51
-6.76
0.30
5.39
8.19
9.29
9.78
10.69
12.47
14.90
17.22
18.54
18.09
15.39
10.27
2.90
-6.08
-15.53
-23.90
-29.56
-31.18
-28.32
-21.56
-12.43
-2.93
5.07
10.26
12.14
10.88
7.21
2.22
-2.77
-6.35
-7.41
-5.47
-1.00
4.63
9.62
12.45
12.45
10.02
6.30
2.66
0.26
-0.22
1.39
4.83
9.62
15.09
20.59
25.37
28.70
30.04
29.06
25.79
20.65
14.43
8.17
2.84
-1.03
-3.41
-4.71
-5.48
-6.27
-7.44
-9.14
-11.40
-13.69
-15.17
-15.36
-14.05
-11.20
-7.08
-2.59
0.99
2.37
0.70
-4.16
-11.56
-20.04
-27.65
-32.43
-32.85
-28.23
-19.17
-7.58
3.53
10.94
12.32
7.18
-2.79
-14.26
-23.33
-27.05
-24.32
-16.19
-5.21
5.72
14.37
19.61
21.34
20.07
16.50
11.51
6.14
1.69
-0.51
0.37
4.19
9.71
15.11
18.71
19.73
18.46
16.04
13.75
12.40
12.08
12.28
12.22
11.32
9.48
7.04
4.69
3.03
2.29
2.14
1.83
0.52
-2.29
-6.54
-11.67
-16.95
-21.78
-25.83
-28.98
-31.07
-31.78
-30.69
-27.47
-22.19
-15.43
-8.14
-1.36
4.12
7.98
10.28
11.32
11.30
10.23
8.03
4.78
0.90
-2.75
-5.21
-5.77
-4.38
-1.73
0.99
2.44
1.58
-2.02
-8.05
-15.47
-22.70
-27.92
-29.54
-26.71
-19.56
-9.33
2.05
12.49
20.36
24.86
26.05
24.61
21.48
17.54
13.47
9.81
6.99
5.38
5.19
6.34
8.36
10.53
12.06
12.43
11.56
9.88
8.09
6.86
6.52
6.84
7.18
6.84
5.46
3.21
0.65
-1.75
-4.04
-6.84
-11.03
-17.04
-24.29
-31.15
-35.50
-35.68
-31.27
-23.29
-13.79
-4.91
1.81
5.89
7.64
7.78
6.90
5.38
3.40
1.16
-1.03
-2.78
-3.72
-3.73
-3.04
-2.03
-1.13
-0.57
-0.34
-0.22
0.04
0.67
1.75
3.13
4.52
5.64
6.33
6.64
6.86
7.39
8.63
10.68
13.04
14.84
15.16
13.51
10.06
5.57
1.12
-2.13
-3.57
-3.40
-2.46
-1.62
-1.34
-1.49
-1.55
-0.93
0.98
4.18
7.87
10.77
11.88
11.06
9.06
7.20
6.84
9.36
15.40
24.47
35.16
45.67
54.27
59.35
59.60
51.23
33.21
9.21
-13.75
-29.76
-36.79
-36.25
-31.13
-24.50
-17.45
-9.74
-1.11
7.85
15.71
20.92
22.73
20.61
15.24
7.93
0.40
-6.05
-10.93
-14.49
-17.22
-19.35
-20.93
-21.79
-21.92
-21.32
-20.19
-18.97
-18.14
-18.01
-18.54
-19.46
-20.33
-20.79
-20.62
-19.85
-18.80
-17.88
-17.39
-17.22
-16.87
-15.58
-12.71
-8.01
-1.84
4.82
10.60
14.21
14.89
12.61
8.15
2.77
-2.20
-5.72
-7.32
-7.03
-5.28
-2.60
0.51
3.71
6.72
9.32
11.26
12.30
12.32
11.40
9.81
7.93
6.13
4.62
3.47
2.66
2.28
2.55
3.75
6.02
9.08
12.17
14.21
14.19
11.62
6.82
0.81
-5.05
-9.60
-12.33
-13.41
-13.51
-13.38
-13.47
-13.84
-14.21
-14.26
-13.85
-13.08
-12.24
-11.62
-11.39
-11.53
-11.88
-12.18
-12.12
-11.39
-9.76
-7.14
-3.73
0.00
3.37
5.68
6.52
5.85
4.00
1.53
-1.02
-3.18
-4.69
-5.50
-5.74
-5.77
-6.15
-7.38
-9.75
-13.02
-16.48
-19.11
-19.93
-18.42
-14.62
-9.09
-2.70
3.62
9.07
13.07
15.38
16.04
15.43
14.09
12.63
11.53
11.05
11.23
11.92
12.91
13.98
14.94
15.66
16.06
16.13
15.90
15.49
15.04
14.69
14.51
14.49
14.52
14.45
14.18
13.66
12.92
11.98
10.86
9.53
8.09
6.75
5.75
5.16
4.71
3.77
1.65
-1.99
-6.83
-12.03
-16.52
-19.61
-21.21
-21.85
-22.23
-22.74
-23.32
-23.46
-22.67
-20.72
-17.88
-14.70
-11.74
-9.24
-7.04
-4.65
-1.55
2.48
7.22
11.93
15.68
17.64
17.40
15.10
11.43
7.41
4.08
2.23
2.18
3.68
5.93
7.72
7.77
5.15
-0.40
-8.29
-17.16
-25.21
-30.72
-32.45
-29.96
-23.66
-14.64
-4.38
5.61
14.05
20.15
23.58
24.40
22.99
19.92
15.83
11.42
7.30
3.96
1.67
0.51
0.39
1.15
2.54
4.28
5.98
7.30
8.05
8.33
8.45
8.70
9.10
9.37
9.14
8.34
7.42
7.19
8.23
10.41
12.70
13.57
11.78
7.02
0.13
-7.27
-13.58
-17.76
-19.63
-19.64
-18.40
-16.42
-14.04
-11.54
-9.27
-7.57
-6.63
-6.32
-6.16
-5.52
-3.92
-1.34
1.81
4.77
6.87
7.75
7.55
6.75
5.92
5.42
5.22
5.03
4.38
2.91
0.33
-3.41
-8.20
-13.66
-19.08
-23.39
-25.41
-24.13
-19.22
-11.19
-1.38
8.43
16.53
21.72
23.50
22.06
18.10
12.63
6.78
1.58
-2.21
-4.18
-4.32
-2.84
-0.12
3.49
7.63
11.87
15.75
18.74
20.42
20.62
19.46
17.28
14.52
11.53
8.54
5.75
3.41
1.85
1.31
1.73
2.61
3.18
2.72
1.00
-1.55
-4.01
-5.41
-5.28
-3.86
-1.98
-0.63
-0.41
-1.33
-2.90
-4.45
-5.54
-6.18
-6.77
-7.88
-9.95
-13.02
-16.62
-19.94
-22.06
-22.29
-20.44
-16.87
-12.42
-8.09
-4.73
-2.77
-2.20
-2.64
-3.63
-4.79
-5.96
-7.24
-8.81
-10.87
-13.48
-16.51
-19.69
-22.61
-24.66
-25.21
-23.77
-20.11
-14.42
-7.24
0.54
7.88
13.77
17.59
19.05
18.13
14.99
10.05
3.95
-2.50
-8.45
-13.21
-16.12
-16.85
-15.49
-12.54
-8.61
-4.31
-0.10
3.61
6.64
9.34
12.34
16.21
21.12
26.80
32.65
37.89
41.92
42.99
40.39
35.10
29.22
24.29
20.33
16.40
11.58
5.62
-1.02
-7.36
-12.58
-16.48
-19.34
-21.44
-22.68
-22.65
-21.00
-17.80
-13.45
-8.69
-4.39
-1.14
1.04
2.62
4.29
6.19
8.03
9.31
9.58
8.71
6.95
4.93
3.15
2.14
1.74
1.35
0.36
-1.52
-4.14
-7.01
-9.54
-11.25
-11.80
-11.19
-9.64
-7.62
-5.78
-4.85
-5.10
-6.36
-7.85
-8.50
-7.50
-4.64
-0.54
3.72
7.08
8.91
9.05
7.67
5.04
1.45
-2.62
-6.38
-8.80
-8.93
-6.43
-1.76
3.86
8.97
12.43
13.80
13.31
11.54
9.10
6.39
3.65
1.04
-1.21
-2.84
-3.55
-3.29
-2.27
-0.99
0.01
0.40
0.15
-0.53
-1.30
-1.96
-2.40
-2.73
-3.10
-3.61
-4.27
-4.95
-5.47
-5.67
-5.54
-5.18
-4.75
-4.53
-4.74
-5.48
-6.62
-7.89
-9.00
-9.78
-10.17
-10.26
-10.21
-10.15
-10.06
-9.70
-8.80
-7.29
-5.32
-3.12
-0.82
1.54
4.05
6.83
10.05
13.79
18.02
21.79
24.19
24.87
24.14
22.43
19.88
16.53
12.60
8.61
5.15
2.76
1.66
1.58
2.07
2.50
2.46
1.83
0.73
-0.57
-1.69
-2.33
-2.47
-2.35
-2.31
-2.54
-2.97
-3.35
-3.35
-2.69
-1.33
0.51
2.43
4.09
5.27
5.88
5.84
5.15
3.92
2.42
0.98
-0.04
-0.43
-0.17
0.60
1.58
2.89
4.56
6.49
8.28
9.56
10.23
10.54
10.98
11.87
13.20
14.67
15.80
16.04
15.23
13.69
11.99
10.75
10.14
10.65
12.32
15.78
20.78
26.31
31.19
34.25
35.84
36.32
35.86
34.86
33.58
32.15
30.88
30.25
30.72
32.69
36.05
40.43
45.09
49.00
50.89
49.63
44.57
35.66
23.63
9.68
-4.66
-17.96
-29.25
-38.27
-45.22
-50.50
-54.50
-57.39
-59.32
-60.38
-60.72
-60.62
-60.38
-60.18
-59.98
-59.52
-58.46
-56.60
-53.94
-50.77
-47.49
-44.51
-41.98
-39.78
-37.55
-34.96
-31.91
-28.57
-25.25
-22.28
-19.79
-17.71
-15.84
-14.00
-12.16
-10.45
-9.05
-8.08
-7.53
-7.28
-7.18
-7.10
-7.02
-6.98
-7.03
-7.23
-7.55
-7.89
-8.06
-7.88
-7.18
-5.94
-4.27
-2.38
-0.56
1.00
2.20
3.07
3.73
4.32
4.91
5.54
6.23
6.99
7.80
8.65
9.45
10.11
10.55
10.77
10.80
10.71
10.58
10.45
10.29
10.06
9.74
9.30
8.79
8.26
7.77
7.35
6.95
6.54
6.07
5.55
4.99
4.44
3.88
3.32
2.72
2.12
1.56
1.15
0.96
1.02
1.30
1.70
2.11
2.43
2.58
2.57
2.42
2.22
2.03
1.91
1.85
1.80
1.72
1.56
1.35
1.10
0.84
0.57
0.28
-0.01
-0.24
-0.35
-0.30
-0.11
0.10
0.25
0.26
0.14
-0.01
-0.10
-0.11
-0.09
-0.13
-0.28
-0.49
-0.65
-0.64
-0.42
-0.07
0.23
0.30
0.04
-0.48
-1.08
-1.57
-1.77
-1.67
-1.32
-0.87
-0.42
-0.05
0.22
0.38
0.39
0.21
-0.16
-0.70
-1.29
-1.84
-2.28
-2.65
-3.06
-3.59
-4.28
-5.10
-5.98
-6.89
-7.83
-8.84
-9.90
-10.92
-11.72
-12.17
-12.24
-12.10
-12.11
-12.65
-13.98
-16.08
-18.67
-21.27
-23.36
-24.52
-24.48
-23.13
-20.45
-16.47
-11.45
-5.90
-0.58
3.78
6.75
8.44
9.39
10.32
11.70
13.48
15.12
15.90
15.29
13.31
10.48
7.60
5.43
4.43
4.68
6.05
8.25
10.96
13.75
16.08
17.32
16.95
14.72
10.93
6.46
2.46
-0.07
-0.62
0.63
2.94
5.36
7.12
7.78
7.33
6.01
4.15
2.07
-0.01
-1.91
-3.53
-4.80
-5.67
-6.19
-6.42
-6.51
-6.57
-6.67
-6.81
-6.92
-6.87
-6.56
-5.92
-4.94
-3.70
-2.30
-0.90
0.34
1.26
1.79
1.99
2.06
2.28
2.86
3.87
5.16
6.41
7.24
7.36
6.71
5.54
4.29
3.42
3.15
3.39
3.79
3.89
3.35
2.12
0.50
-1.14
-2.51
-3.59
-4.57
-5.70
-7.05
-8.44
-9.52
-9.86
-9.21
-7.58
-5.23
-2.45
0.56
3.69
6.91
10.13
13.36
16.46
19.10
20.82
21.28
20.38
18.32
15.51
12.50
10.22
9.26
9.57
10.43
10.98
10.64
9.20
6.86
4.07
1.94
1.40
2.55
4.85
7.54
10.15
12.39
14.14
15.40
17.08
20.06
24.57
30.17
36.28
42.52
48.56
54.03
53.59
44.16
27.43
8.70
-7.64
-20.04
-28.92
-35.32
-40.21
-44.07
-46.12
-45.50
-42.30
-37.46
-32.36
-28.25
-25.95
-25.69
-27.15
-28.95
-29.76
-29.15
-27.70
-26.42
-26.26
-27.55
-30.04
-32.94
-34.65
-33.44
-27.97
-17.55
-2.30
16.73
37.42
56.74
71.44
79.23
79.20
71.96
59.26
43.50
27.13
12.23
0.36
-7.56
-11.13
-10.60
-6.92
-1.54
3.94
8.23
10.48
10.47
8.42
4.88
0.60
-3.67
-7.37
-10.21
-12.22
-13.63
-14.72
-15.59
-16.23
-16.56
-16.53
-16.20
-15.62
-14.83
-13.72
-12.19
-10.22
-7.90
-5.35
-2.71
-0.00
2.82
5.80
8.97
12.27
15.52
18.51
21.04
22.91
23.88
23.79
22.56
20.43
17.80
15.11
12.70
10.61
8.52
5.79
1.61
-4.64
-12.97
-22.84
-33.28
-43.05
-50.83
-55.53
-56.63
-54.38
-49.70
-43.42
-36.52
-29.99
-24.46
-20.00
-16.23
-12.68
-9.07
-5.45
-1.35
3.38
8.39
13.16
17.43
21.25
24.81
28.22
31.51
35.69
41.35
48.24
55.46
62.08
67.47
71.37
73.92
70.78
61.17
48.13
35.71
25.27
15.67
5.28
-6.30
-17.74
-28.30
-36.19
-40.51
-41.78
-41.42
-40.66
-40.13
-39.24
-37.82
-36.05
-33.62
-30.66
-27.74
-25.42
-23.68
-22.03
-19.90
-17.15
-14.16
-11.06
-8.19
-6.05
-5.00
-4.99
-5.62
-6.46
-7.29
-8.08
-8.57
-8.60
-8.15
-7.27
-6.08
-4.68
-3.27
-2.12
-1.41
-1.13
-1.14
-1.32
-1.60
-1.91
-2.19
-2.42
-2.57
-2.64
-2.63
-2.56
-2.47
-2.41
-2.37
-2.31
-2.11
-1.64
-0.83
0.28
1.57
2.84
3.92
4.69
5.17
5.43
5.55
5.58
5.52
5.36
5.16
5.00
4.98
5.17
5.51
5.87
6.08
6.04
5.73
5.20
4.54
3.80
3.02
2.26
1.54
0.90
0.39
0.00
-0.31
-0.57
-0.82
-1.05
-1.27
-1.48
-1.64
-1.71
-1.63
-1.32
-0.76
0.03
0.97
1.95
2.88
3.66
4.26
4.66
4.87
4.92
4.85
4.74
4.60
4.47
4.32
4.12
3.88
3.60
3.31
3.00
2.69
2.37
2.02
1.65
1.24
0.80
0.39
0.05
-0.18
-0.28
-0.29
-0.30
-0.39
-0.66
-1.14
-1.83
-2.67
-3.57
-4.41
-5.07
-5.47
-5.59
-5.43
-5.04
-4.44
-3.64
-2.65
-1.54
-0.41
0.57
1.27
1.63
1.72
1.65
1.58
1.58
1.70
1.95
2.31
2.78
3.33
3.87
4.28
4.43
4.27
3.86
3.37
2.96
2.71
2.58
2.46
2.24
1.90
1.52
1.18
0.93
0.72
0.44
-0.03
-0.73
-1.58
-2.45
-3.17
-3.62
-3.77
-3.60
-3.17
-2.53
-1.73
-0.83
0.06
0.84
1.39
1.63
1.53
1.16
0.65
0.15
-0.21
-0.37
-0.38
-0.34
-0.39
-0.63
-1.07
-1.67
-2.36
-3.07
-3.80
-4.61
-5.56
-6.71
-8.03
-9.45
-10.89
-12.27
-13.61
-14.89
-16.20
-17.57
-19.08
-20.77
-22.63
-24.56
-26.35
-27.76
-28.56
-28.66
-28.07
-26.93
-25.40
-23.63
-21.69
-19.62
-17.41
-15.05
-12.45
-9.53
-6.18
-2.31
2.02
6.55
10.91
14.68
17.56
19.50
20.67
21.41
22.06
22.83
23.74
24.69
25.50
26.04
26.25
26.09
25.57
24.65
23.39
21.90
20.38
19.12
18.32
18.08
18.31
18.84
19.46
20.05
20.55
20.98
21.31
21.48
21.38
20.93
20.17
19.20
18.19
17.29
16.54
15.96
15.48
15.07
14.69
14.28
13.78
13.09
12.17
11.01
9.68
8.28
6.93
5.74
4.73
3.92
3.23
2.58
1.88
1.10
0.31
-0.41
-1.00
-1.48
-1.94
-2.47
-3.09
-3.71
-4.17
-4.27
-3.93
-3.20
-2.27
-1.30
-0.39
0.54
1.70
3.34
5.65
8.69
12.32
16.27
20.22
23.93
27.31
30.35
33.10
35.66
38.09
40.42
42.61
44.60
46.29
47.49
47.90
47.17
45.20
42.21
38.70
35.19
32.03
29.22
26.42
22.89
17.86
11.17
3.36
-4.49
-11.29
-16.27
-19.31
-20.84
-21.95
-23.77
-26.70
-30.14
-32.94
-34.09
-33.18
-30.60
-27.29
-24.69
-24.13
-26.10
-30.31
-36.20
-43.19
-50.18
-55.74
-55.33
-44.77
-24.68
-0.95
18.46
27.24
23.10
8.60
-10.41
-27.56
-39.07
-44.59
-45.85
-45.23
-43.34
-39.89
-34.56
-27.91
-21.36
-16.90
-15.96
-18.34
-21.82
-23.65
-21.99
-16.66
-9.22
-1.92
3.74
7.11
8.49
8.76
8.74
8.68
8.31
7.06
4.73
1.65
-1.09
-2.36
-1.52
1.25
4.96
8.18
9.28
7.21
1.98
-5.55
-13.99
-21.63
-26.44
-26.35
-18.37
-2.29
17.67
34.87
44.20
44.13
36.43
24.75
12.86
3.21
-3.78
-8.91
-12.90
-15.81
-17.23
-16.86
-14.91
-12.19
-9.86
-9.16
-10.58
-13.54
-16.77
-18.98
-19.53
-18.45
-16.39
-14.22
-12.76
-12.38
-12.77
-13.19
-12.87
-11.60
-9.28
-6.24
-3.05
-0.27
1.76
3.08
3.98
4.80
5.72
6.77
7.84
8.78
9.45
9.79
9.81
9.60
9.23
8.73
8.17
7.62
7.24
7.25
7.90
9.33
11.58
14.42
17.38
19.95
21.77
22.75
23.16
23.41
23.43
23.18
22.42
20.79
18.06
14.25
9.69
4.86
0.21
-3.98
-7.56
-10.56
-13.04
-15.03
-16.56
-17.69
-18.54
-19.32
-20.22
-21.34
-22.68
-24.12
-25.45
-26.39
-26.77
-26.50
-25.71
-24.62
-23.49
-22.52
-21.73
-20.95
-19.91
-18.31
-15.98
-12.94
-9.36
-5.50
-1.64
2.01
5.32
8.24
10.74
12.82
14.47
15.75
16.73
17.51
18.19
18.83
19.45
20.00
20.38
20.46
20.13
19.39
18.35
17.31
16.66
16.74
17.69
19.34
21.23
22.74
23.29
22.51
20.32
17.02
13.24
9.78
7.42
6.60
7.27
8.81
10.26
10.70
9.54
6.76
2.77
-1.89
-6.75
-11.59
-16.31
-20.77
-24.65
-27.53
-29.09
-29.23
-28.18
-26.39
-24.34
-22.35
-20.51
-18.65
-16.51
-13.90
-10.77
-7.33
-3.90
-0.85
1.55
3.25
4.41
5.29
6.10
6.88
7.46
7.59
7.06
5.86
4.18
2.40
0.84
-0.28
-1.01
-1.61
-2.42
-3.68
-5.50
-7.76
-10.23
-12.66
-14.93
-17.11
-19.39
-21.87
-24.47
-26.99
-29.18
-30.86
-31.98
-32.67
-33.21
-33.91
-34.77
-35.53
-35.79
-35.18
-33.45
-30.57
-26.74
-22.37
-17.97
-13.57
-8.87
-3.45
2.88
9.97
17.27
24.09
29.81
33.93
36.82
39.29
42.23
46.22
51.53
58.21
66.37
76.09
83.88
85.97
79.79
65.47
45.54
23.42
2.43
-14.48
-25.12
-28.81
-25.96
-18.24
-8.15
1.53
8.84
12.39
10.96
5.26
-3.17
-12.13
-19.41
-23.34
-23.05
-18.70
-11.47
-3.25
3.95
8.24
8.82
6.40
2.17
-2.23
-5.42
-6.84
-6.73
-5.87
-5.27
-5.53
-6.59
-7.97
-9.00
-9.26
-8.77
-7.85
-6.79
-5.84
-5.13
-4.76
-4.92
-5.69
-6.98
-8.41
-9.42
-9.49
-8.41
-6.49
-4.50
-3.24
-2.94
-3.22
-3.26
-2.34
-0.24
2.62
5.47
7.62
8.82
9.25
9.27
9.12
8.75
8.02
6.92
5.72
4.92
5.00
6.14
8.07
10.13
11.61
12.03
11.39
10.04
8.39
6.79
5.48
4.60
4.22
4.29
4.65
5.11
5.46
5.47
5.10
4.50
3.91
3.52
3.30
3.09
2.70
2.00
0.78
-1.06
-3.59
-6.83
-10.84
-15.72
-21.49
-27.95
-33.10
-34.69
-31.40
-23.94
-14.05
-3.51
6.18
13.81
18.60
20.32
18.79
14.50
8.43
1.96
-3.42
-6.74
-7.16
-3.97
2.16
8.65
14.33
18.89
22.14
24.18
25.19
25.41
25.10
24.45
23.54
22.59
21.48
19.99
17.92
15.19
11.88
8.25
4.66
1.53
-0.60
-1.52
-1.39
-0.68
-0.07
-0.27
-1.87
-5.10
-9.77
-15.12
-20.26
-24.29
-26.50
-26.55
-24.52
-20.85
-16.31
-11.71
-7.81
-5.21
-4.27
-5.01
-7.04
-9.76
-12.55
-14.96
-16.80
-18.09
-18.96
-19.53
-19.81
-19.82
-19.66
-19.53
-19.72
-20.39
-21.51
-22.76
-23.66
-23.73
-22.64
-20.31
-16.92
-12.88
-8.71
-4.91
-1.93
0.02
0.93
1.04
0.70
0.30
0.12
0.26
0.61
0.94
1.03
0.80
0.32
-0.15
-0.27
0.32
1.85
4.41
7.87
11.88
15.99
19.71
22.66
24.66
25.70
25.96
25.66
25.05
24.31
23.54
22.75
21.81
20.54
18.73
16.35
13.55
10.76
8.44
6.93
6.23
6.00
5.65
4.63
2.64
-0.29
-3.82
-7.37
-10.34
-12.24
-12.80
-12.06
-10.43
-8.55
-7.07
-6.46
-6.74
-7.53
-8.21
-8.15
-7.03
-4.86
-2.04
0.88
3.35
4.94
5.50
5.24
4.69
4.62
5.75
8.43
12.40
16.71
20.05
21.19
19.43
14.87
8.32
0.94
-6.16
-12.20
-16.92
-20.42
-23.03
-25.12
-26.88
-28.33
-29.29
-29.46
-28.55
-26.40
-23.01
-18.59
-13.51
-8.15
-2.93
1.76
5.57
8.26
9.65
9.72
8.69
6.94
5.02
3.45
2.61
2.59
3.19
4.03
4.75
5.13
5.22
5.22
5.37
5.81
6.55
7.52
8.68
9.99
11.35
12.57
13.27
13.07
11.74
9.42
6.66
4.27
2.98
3.15
4.68
7.00
9.40
11.24
12.12
11.89
10.56
8.23
5.08
1.36
-2.55
-6.19
-8.99
-10.49
-10.41
-8.80
-6.10
-3.07
-0.62
0.50
-0.08
-2.20
-5.27
-8.54
-11.36
-13.32
-14.25
-14.08
-12.81
-10.48
-7.32
-3.75
-0.35
2.33
3.95
4.49
4.19
3.36
2.26
0.96
-0.54
-2.29
-4.22
-6.16
-7.81
-8.91
-9.27
-8.87
-7.88
-6.61
-5.39
-4.52
-4.13
-4.19
-4.53
-4.90
-5.07
-4.83
-4.01
-2.49
-0.28
2.53
5.63
8.58
10.89
12.23
12.49
11.85
10.65
9.27
7.96
6.78
5.66
4.44
3.01
1.35
-0.48
-2.32
-3.97
-5.19
-5.81
-5.74
-5.06
-4.00
-2.86
-1.87
-1.18
-0.81
-0.70
-0.77
-0.97
-1.25
-1.57
-1.84
-1.97
-1.86
-1.48
-0.85
-0.05
0.78
1.57
2.26
2.85
3.32
3.65
3.83
3.87
3.80
3.64
3.45
3.16
2.73
2.06
1.15
0.05
-1.09
-2.09
-2.82
-3.19
-3.22
-2.94
-2.43
-1.78
-1.13
-0.62
-0.38
-0.45
-0.83
-1.36
-1.88
-2.23
-2.29
-2.00
-1.38
-0.47
0.60
1.64
2.46
2.87
2.77
2.17
1.21
0.11
-0.90
-1.66
-2.10
-2.28
-2.30
-2.22
-2.07
-1.83
-1.47
-1.04
-0.66
-0.50
-0.73
-1.40
-2.44
-3.61
-4.64
-5.31
-5.53
-5.33
-4.84
-4.21
-3.56
-2.98
-2.50
-2.16
-1.95
-1.89
-1.95
-2.03
-2.06
-1.90
-1.46
-0.75
0.14
1.00
1.63
1.89
1.76
1.40
1.01
0.81
0.90
1.26
1.76
2.21
2.51
2.59
2.51
2.33
2.15
2.01
1.92
1.82
1.67
1.39
0.99
0.49
-0.03
-0.45
-0.69
-0.69
-0.46
-0.07
0.39
0.84
1.28
1.70
2.12
2.50
2.77
2.85
2.75
2.54
2.35
2.28
2.34
2.47
2.57
2.59
2.55
2.49
2.47
2.51
2.55
2.54
2.47
2.36
2.25
2.14
1.99
1.71
1.23
0.53
-0.27
-1.00
-1.48
-1.62
-1.49
-1.24
-1.04
-0.98
-0.98
-0.95
-0.79
-0.53
-0.29
-0.17
-0.23
-0.39
-0.51
-0.52
-0.42
-0.27
-0.12
0.01
0.19
0.42
0.65
0.75
0.61
0.20
-0.34
-0.79
-0.94
-0.73
-0.25
0.26
0.56
0.48
0.06
-0.57
-1.17
-1.59
-1.79
-1.80
-1.73
-1.64
-1.54
-1.41
-1.27
-1.14
-1.09
-1.15
-1.26
-1.35
-1.30
-1.08
-0.70
-0.27
0.11
0.37
0.50
0.55
0.61
0.73
0.92
1.11
1.25
1.34
1.39
1.47
1.61
1.76
1.83
1.72
1.38
0.90
0.45
0.17
0.15
0.31
0.48
0.48
0.24
-0.18
-0.63
-0.98
-1.20
-1.38
-1.64
-2.03
-2.49
-2.88
-3.01
-2.81
-2.32
-1.65
-0.92
-0.18
0.52
1.17
1.72
2.08
2.21
2.12
1.85
1.54
1.28
1.12
1.07
1.09
1.11
1.11
1.07
1.03
1.04
1.10
1.20
1.29
1.33
1.28
1.14
0.94
0.69
0.46
0.27
0.17
0.15
0.18
0.19
0.11
-0.13
-0.53
-1.05
-1.59
-2.06
-2.35
-2.45
-2.37
-2.18
-1.94
-1.70
-1.48
-1.26
-0.96
-0.52
0.07
0.74
1.35
1.78
1.91
1.76
1.41
1.01
0.70
0.56
0.60
0.74
0.90
0.99
0.99
0.92
0.82
0.74
0.71
0.74
0.81
0.90
0.96
0.94
0.81
0.54
0.12
-0.43
-1.06
-1.69
-2.23
-2.60
-2.74
-2.66
-2.40
-2.03
-1.64
-1.28
-1.00
-0.81
-0.67
-0.55
-0.41
-0.25
-0.05
0.17
0.36
0.51
0.60
0.66
0.71
0.74
0.71
0.63
0.53
0.51
0.65
0.99
1.42
1.76
1.83
1.58
1.11
0.64
0.36
0.35
0.52
0.68
0.63
0.30
-0.23
-0.80
-1.24
-1.46
-1.44
-1.29
-1.15
-1.14
-1.35
-1.77
-2.28
-2.75
-3.05
-3.10
-2.90
-2.47
-1.84
-1.03
-0.11
0.80
1.55
1.98
2.04
1.77
1.35
1.01
0.90
1.09
1.53
2.06
2.49
2.69
2.58
2.21
1.68
1.15
0.75
0.51
0.43
0.39
0.31
0.16
-0.06
-0.30
-0.53
-0.78
-1.10
-1.52
-2.06
-2.63
-3.17
-3.60
-3.88
-4.00
-3.96
-3.71
-3.24
-2.53
-1.66
-0.75
0.03
0.52
0.69
0.60
0.40
0.28
0.34
0.56
0.85
1.08
1.21
1.25
1.29
1.37
1.47
1.49
1.34
1.03
0.63
0.29
0.08
0.02
0.03
0.01
-0.11
-0.33
-0.58
-0.82
-1.00
-1.12
-1.15
-1.11
-0.97
-0.77
-0.56
-0.36
-0.19
-0.01
0.23
0.57
0.99
1.43
1.83
2.14
2.37
2.53
2.65
2.74
2.79
2.80
2.78
2.73
2.66
2.55
2.40
2.23
2.08
2.01
2.05
2.20
2.42
2.63
2.79
2.85
2.80
2.65
2.41
2.11
1.76
1.35
0.88
0.37
-0.17
-0.71
-1.23
-1.71
-2.15
-2.51
-2.76
-2.81
-2.60
-2.12
-1.49
-0.89
-0.48
-0.35
-0.41
-0.49
-0.44
-0.26
-0.03
0.08
-0.02
-0.28
-0.60
-0.80
-0.83
-0.71
-0.58
-0.51
-0.55
-0.64
-0.71
-0.70
-0.60
-0.47
-0.38
-0.43
-0.63
-0.95
-1.28
-1.50
-1.55
-1.42
-1.20
-0.98
-0.84
-0.75
-0.66
-0.52
-0.35
-0.19
-0.09
-0.07
-0.04
0.06
0.29
0.60
0.89
1.04
0.99
0.75
0.40
0.07
-0.16
-0.20
-0.04
0.30
0.76
1.26
1.67
1.88
1.79
1.37
0.66
-0.25
-1.29
-2.37
-3.47
-4.56
-5.56
-6.38
-6.93
-7.17
-7.16
-6.99
-6.77
-6.57
-6.35
-6.04
-5.57
-4.92
-4.17
-3.44
-2.83
-2.39
-2.09
-1.81
-1.40
-0.79
0.05
1.04
2.10
3.11
4.03
4.83
5.50
5.98
6.19
6.06
5.54
4.64
3.45
2.09
0.68
-0.67
-1.91
-2.99
-3.88
-4.57
-5.05
-5.31
-5.36
-5.23
-4.97
-4.63
-4.20
-3.67
-2.99
-2.16
-1.20
-0.21
0.69
1.42
1.96
2.40
2.85
3.43
4.10
4.74
5.17
5.29
5.14
4.90
4.76
4.87
5.19
5.54
5.70
5.52
5.03
4.41
3.88
3.58
3.52
3.60
3.66
3.57
3.33
2.99
2.61
2.19
1.69
1.05
0.31
-0.41
-0.92
-1.06
-0.83
-0.38
0.05
0.27
0.23
0.09
0.03
0.25
0.74
1.36
1.92
2.24
2.30
2.21
2.12
2.15
2.32
2.53
2.67
2.66
2.52
2.34
2.18
2.03
1.80
1.38
0.71
-0.12
-0.91
-1.46
-1.65
-1.53
-1.25
-0.97
-0.76
-0.61
-0.45
-0.22
0.07
0.36
0.63
0.89
1.22
1.71
2.37
3.15
3.92
4.56
4.99
5.22
5.29
5.25
5.18
5.13
5.11
5.15
5.21
5.28
5.31
5.28
5.19
5.05
4.89
4.70
4.46
4.13
3.70
3.24
2.81
2.49
2.24
1.96
1.50
0.75
-0.27
-1.41
-2.44
-3.19
-3.57
-3.60
-3.34
-2.81
-2.00
-0.87
0.48
1.84
2.92
3.45
3.32
2.64
1.63
0.54
-0.45
-1.28
-1.97
-2.54
-2.97
-3.23
-3.31
-3.27
-3.26
-3.43
-3.86
-4.51
-5.23
-5.83
-6.17
-6.23
-6.06
-5.73
-5.31
-4.81
-4.22
-3.55
-2.85
-2.23
-1.81
-1.71
-1.95
-2.47
-3.13
-3.69
-3.92
-3.64
-2.86
-1.74
-0.55
0.43
1.06
1.37
1.47
1.56
1.73
1.99
2.26
2.41
2.36
2.11
1.70
1.22
0.74
0.35
0.09
-0.06
-0.18
-0.37
-0.74
-1.36
-2.23
-3.29
-4.44
-5.52
-6.39
-6.93
-7.06
-6.80
-6.26
-5.63
-5.10
-4.83
-4.91
-5.31
-5.96
-6.79
-7.71
-8.67
-9.56
-10.28
-10.69
-10.71
-10.33
-9.62
-8.73
-7.78
-6.84
-5.88
-4.82
-3.56
-2.03
-0.22
1.82
4.08
6.53
9.18
11.97
14.78
17.41
19.62
21.24
22.21
22.55
22.29
21.44
19.97
17.82
15.08
11.98
8.90
6.24
4.27
3.09
2.59
2.59
2.85
3.19
3.43
3.47
3.22
2.69
2.01
1.37
0.98
0.94
1.25
1.77
2.30
2.63
2.63
2.25
1.52
0.51
-0.70
-2.02
-3.30
-4.41
-5.11
-5.21
-4.59
-3.27
-1.47
0.42
1.93
2.70
2.51
1.38
-0.46
-2.64
-4.76
-6.46
-7.51
-7.87
-7.71
-7.33
-7.08
-7.23
-7.87
-8.90
-10.04
-10.98
-11.43
-11.26
-10.47
-9.19
-7.63
-6.03
-4.54
-3.24
-2.12
-1.10
-0.10
0.92
1.96
2.94
3.73
4.21
4.30
4.00
3.40
2.69
2.09
1.76
1.74
1.91
2.06
1.91
1.34
0.35
-0.86
-2.00
-2.73
-2.80
-2.09
-0.66
1.28
3.43
5.38
6.76
7.27
6.81
5.51
3.66
1.68
-0.08
-1.39
-2.24
-2.76
-3.11
-3.41
-3.64
-3.68
-3.39
-2.73
-1.77
-0.70
0.29
1.06
1.61
2.03
2.40
2.69
2.81
2.63
2.10
1.30
0.45
-0.20
-0.49
-0.39
0.02
0.62
1.33
2.10
2.87
3.54
3.94
3.93
3.41
2.46
1.28
0.14
-0.72
-1.15
-1.18
-0.95
-0.68
-0.55
-0.69
-1.10
-1.73
-2.45
-3.17
-3.76
-4.13
-4.22
-4.00
-3.51
-2.88
-2.28
-1.87
-1.70
-1.71
-1.75
-1.67
-1.36
-0.85
-0.26
0.25
0.58
0.69
0.64
0.49
0.31
0.08
-0.20
-0.57
-0.99
-1.35
-1.56
-1.58
-1.44
-1.23
-1.07
-1.03
-1.10
-1.26
-1.47
-1.71
-1.99
-2.32
-2.69
-3.10
-3.51
-3.90
-4.26
-4.57
-4.78
-4.85
-4.74
-4.42
-3.91
-3.27
-2.55
-1.83
-1.13
-0.47
0.15
0.70
1.14
1.41
1.47
1.36
1.13
0.89
0.71
0.63
0.61
0.59
0.50
0.31
0.04
-0.25
-0.51
-0.73
-0.90
-1.05
-1.17
-1.23
-1.18
-0.98
-0.66
-0.36
-0.21
-0.33
-0.71
-1.19
-1.56
-1.66
-1.48
-1.11
-0.69
-0.31
0.07
0.54
1.17
1.92
2.65
3.24
3.65
3.97
4.34
4.86
5.54
6.26
6.86
7.24
7.39
7.35
7.17
6.89
6.49
5.94
5.18
4.20
3.07
1.92
0.93
0.25
-0.07
-0.09
0.03
0.16
0.20
0.17
0.12
0.08
0.04
-0.06
-0.24
-0.49
-0.77
-1.01
-1.22
-1.47
-1.77
-2.15
-2.54
-2.88
-3.14
-3.30
-3.40
-3.42
-3.34
-3.11
-2.72
-2.15
-1.43
-0.61
0.24
1.03
1.63
1.91
1.80
1.32
0.63
-0.05
-0.51
-0.59
-0.29
0.25
0.85
1.32
1.49
1.30
0.76
-0.06
-1.00
-1.88
-2.52
-2.80
-2.72
-2.41
-2.07
-1.90
-1.98
-2.26
-2.57
-2.75
-2.69
-2.41
-1.99
-1.53
-1.08
-0.66
-0.25
0.14
0.53
0.91
1.31
1.77
2.30
2.87
3.42
3.91
4.32
4.71
5.15
5.67
6.23
6.74
7.10
7.24
7.11
6.70
6.03
5.16
4.19
3.30
2.66
2.37
2.38
2.53
2.61
2.45
2.01
1.32
0.47
-0.51
-1.58
-2.76
-4.00
-5.23
-6.34
-7.28
-8.04
-8.66
-9.22
-9.78
-10.37
-10.99
-11.60
-12.10
-12.37
-12.27
-11.68
-10.51
-8.69
-6.19
-3.05
0.59
4.42
8.01
10.87
12.62
13.12
12.56
11.34
9.99
8.95
8.45
8.46
8.77
9.10
9.22
9.03
8.58
7.98
7.38
6.88
6.46
5.99
5.27
4.11
2.41
0.23
-2.24
-4.69
-6.77
-8.19
-8.83
-8.73
-8.13
-7.38
-6.80
-6.58
-6.71
-6.98
-7.09
-6.74
-5.76
-4.11
-1.95
0.44
2.72
4.59
5.84
6.44
6.47
6.12
5.49
4.59
3.37
1.79
-0.04
-1.79
-3.09
-3.58
-3.15
-1.92
-0.19
1.75
3.70
5.56
7.25
8.63
9.46
9.49
8.58
6.82
4.52
2.14
0.08
-1.40
-2.24
-2.52
-2.40
-1.98
-1.38
-0.63
0.21
1.06
1.82
2.44
2.90
3.22
3.47
3.66
3.75
3.66
3.31
2.67
1.80
0.81
-0.18
-1.06
-1.73
-2.14
-2.25
-2.03
-1.53
-0.85
-0.20
0.21
0.20
-0.28
-1.20
-2.36
-3.56
-4.58
-5.34
-5.86
-6.27
-6.72
-7.32
-8.00
-8.62
-9.00
-9.03
-8.74
-8.26
-7.72
-7.19
-6.65
-6.06
-5.41
-4.75
-4.14
-3.56
-2.94
-2.22
-1.42
-0.67
-0.23
-0.29
-0.91
-1.93
-3.10
-4.14
-4.87
-5.27
-5.44
-5.56
-5.82
-6.36
-7.20
-8.29
-9.43
-10.36
-10.80
-10.54
-9.52
-7.86
-5.81
-3.67
-1.66
0.09
1.57
2.79
3.74
4.32
4.49
4.27
3.86
3.56
3.69
4.46
5.86
7.69
9.62
11.31
12.47
12.89
12.43
11.05
8.82
5.94
2.73
-0.42
-3.10
-5.01
-5.95
-5.84
-4.73
-2.77
-0.21
2.63
5.40
7.80
9.57
10.60
10.88
10.52
9.68
8.52
7.18
5.77
4.34
2.97
1.79
0.93
0.55
0.66
1.12
1.64
1.90
1.66
0.90
-0.28
-1.65
-3.05
-4.39
-5.68
-6.96
-8.18
-9.27
-10.11
-10.63
-10.78
-10.56
-9.93
-8.88
-7.46
-5.85
-4.36
-3.32
-2.93
-3.10
-3.46
-3.54
-2.99
-1.74
-0.08
1.56
2.81
3.52
3.79
3.85
3.91
4.05
4.24
4.36
4.29
3.96
3.36
2.55
1.64
0.77
0.13
-0.17
-0.11
0.21
0.63
1.00
1.24
1.36
1.41
1.38
1.24
0.89
0.31
-0.47
-1.31
-2.05
-2.60
-2.90
-2.99
-2.94
-2.83
-2.75
-2.78
-3.01
-3.46
-4.07
-4.69
-5.13
-5.31
-5.24
-5.06
-4.91
-4.88
-4.98
-5.13
-5.23
-5.15
-4.83
-4.21
-3.26
-1.98
-0.44
1.25
2.93
4.43
5.61
6.40
6.77
6.77
6.50
6.08
5.60
5.11
4.61
4.12
3.65
3.29
3.09
3.02
2.92
2.58
1.89
0.92
-0.07
-0.73
-0.85
-0.44
0.26
0.91
1.24
1.15
0.72
0.16
-0.30
-0.54
-0.56
-0.43
-0.26
-0.15
-0.12
-0.16
-0.21
-0.24
-0.26
-0.31
-0.47
-0.73
-1.05
-1.37
-1.65
-1.90
-2.18
-2.55
-3.03
-3.55
-3.97
-4.21
-4.21
-3.99
-3.64
-3.22
-2.75
-2.19
-1.51
-0.72
0.11
0.89
1.53
1.97
2.22
2.31
2.28
2.20
2.13
2.12
2.18
2.30
2.43
2.51
2.50
2.40
2.22
2.00
1.77
1.57
1.43
1.38
1.44
1.57
1.64
1.53
1.13
0.45
-0.41
-1.24
-1.84
-2.07
-1.96
-1.66
-1.35
-1.16
-1.12
-1.14
-1.12
-1.01
-0.83
-0.63
-0.43
-0.18
0.19
0.75
1.46
2.24
2.96
3.49
3.81
3.94
3.95
3.93
3.94
4.00
4.13
4.29
4.42
4.47
4.38
4.15
3.81
3.43
3.09
2.85
2.69
2.58
2.43
2.18
1.79
1.30
0.74
0.13
-0.52
-1.20
-1.88
-2.53
-3.06
-3.44
-3.70
-3.88
-4.06
-4.22
-4.29
-4.16
-3.77
-3.13
-2.32
-1.50
-0.79
-0.28
0.03
0.22
0.42
0.72
1.15
1.64
2.07
2.31
2.35
2.27
2.18
2.15
2.14
2.05
1.80
1.44
1.11
1.00
1.21
1.67
2.16
2.45
2.34
1.82
1.02
0.13
-0.60
-1.00
-1.04
-0.75
-0.30
0.13
0.39
0.40
0.17
-0.25
-0.76
-1.28
-1.73
-2.08
-2.29
-2.33
-2.19
-1.84
-1.28
-0.53
0.32
1.15
1.81
2.23
2.37
2.30
2.13
1.97
1.91
1.95
2.06
2.12
2.05
1.78
1.35
0.87
0.52
0.45
0.69
1.14
1.60
1.90
1.93
1.76
1.51
1.32
1.23
1.19
1.11
0.95
0.74
0.55
0.41
0.30
0.15
-0.10
-0.39
-0.61
-0.62
-0.40
-0.07
0.13
-0.02
-0.62
-1.54
-2.51
-3.25
-3.58
-3.55
-3.29
-3.01
-2.79
-2.65
-2.48
-2.21
-1.83
-1.41
-1.04
-0.77
-0.56
-0.37
-0.13
0.17
0.47
0.71
0.84
0.89
0.93
1.03
1.23
1.53
1.83
2.06
2.18
2.21
2.19
2.19
2.18
2.10
1.86
1.44
0.92
0.44
0.20
0.24
0.52
0.85
1.04
0.97
0.67
0.25
-0.11
-0.31
-0.35
-0.30
-0.25
-0.28
-0.40
-0.58
-0.77
-0.89
-0.93
-0.87
-0.73
-0.52
-0.28
-0.04
0.20
0.43
0.66
0.88
1.04
1.09
1.01
0.83
0.63
0.50
0.50
0.63
0.83
0.99
1.05
0.99
0.83
0.64
0.47
0.34
0.24
0.18
0.16
0.22
0.40
0.70
1.04
1.31
1.34
1.07
0.52
-0.15
-0.75
-1.13
-1.27
-1.25
-1.21
-1.26
-1.42
-1.64
-1.84
-1.97
-2.02
-2.02
-1.99
-1.93
-1.81
-1.59
-1.24
-0.76
-0.22
0.24
0.48
0.37
-0.07
-0.69
-1.26
-1.59
-1.59
-1.32
-0.95
-0.61
-0.34
-0.08
0.21
0.52
0.72
0.69
0.38
-0.11
-0.53
-0.68
-0.45
0.05
0.59
0.90
0.84
0.42
-0.23
-0.90
-1.44
-1.78
-1.90
-1.87
-1.75
-1.61
-1.50
-1.44
-1.46
-1.56
-1.72
-1.91
-2.11
-2.27
-2.37
-2.37
-2.28
-2.10
-1.84
-1.56
-1.31
-1.16
-1.19
-1.44
-1.86
-2.34
-2.70
-2.79
-2.54
-2.01
-1.41
-0.95
-0.80
-0.95
-1.29
-1.58
-1.65
-1.42
-0.96
-0.38
0.22
0.80
1.38
1.96
2.48
2.81
2.74
2.12
0.89
-0.85
-2.85
-4.80
-6.33
-7.19
-7.21
-6.41
-4.90
-2.91
-0.73
1.33
2.95
3.89
3.99
3.29
1.98
0.42
-0.97
-1.83
-1.94
-1.31
-0.12
1.27
2.50
3.27
3.42
2.98
2.10
1.01
-0.05
-0.89
-1.42
-1.58
-1.41
-1.00
-0.49
-0.02
0.31
0.45
0.48
0.50
0.63
0.88
1.19
1.47
1.61
1.68
1.82
2.25
3.14
4.50
6.13
7.61
8.44
8.16
6.53
3.59
-0.31
-4.61
-8.62
-11.71
-13.36
-13.33
-11.64
-8.63
-4.85
-0.97
2.41
4.83
6.09
6.19
5.32
3.74
1.77
-0.25
-1.99
-3.15
-3.62
-3.51
-3.13
-2.88
-3.05
-3.67
-4.52
-5.21
-5.41
-4.97
-4.00
-2.78
-1.61
-0.70
-0.13
0.12
0.12
-0.09
-0.50
-1.07
-1.72
-2.32
-2.74
-2.87
-2.65
-2.16
-1.50
-0.81
-0.22
0.21
0.48
0.62
0.67
0.65
0.58
0.53
0.54
0.68
0.99
1.41
1.84
2.18
2.39
2.46
2.42
2.23
1.75
0.78
-0.79
-2.90
-5.29
-7.51
-9.11
-9.78
-9.46
-8.34
-6.75
-5.03
-3.44
-2.08
-0.97
-0.08
0.60
1.05
1.22
1.13
0.89
0.65
0.60
0.82
1.27
1.84
2.39
2.82
3.14
3.39
3.61
3.84
4.08
4.35
4.67
5.06
5.47
5.78
5.77
5.23
4.08
2.37
0.36
-1.59
-3.11
-3.96
-4.07
-3.54
-2.55
-1.29
0.08
1.48
2.85
4.10
5.12
5.75
5.87
5.47
4.66
3.65
2.72
2.04
1.69
1.62
1.73
1.87
1.99
2.09
2.24
2.51
2.98
3.63
4.37
5.07
5.58
5.83
5.87
5.81
5.80
5.93
6.13
6.25
6.09
5.47
4.38
2.88
1.13
-0.76
-2.67
-4.51
-6.19
-7.59
-8.64
-9.26
-9.44
-9.18
-8.52
-7.55
-6.37
-5.11
-3.92
-2.91
-2.14
-1.62
-1.34
-1.29
-1.48
-1.88
-2.44
-3.07
-3.70
-4.29
-4.87
-5.51
-6.25
-7.06
-7.82
-8.33
-8.39
-7.86
-6.71
-5.07
-3.13
-1.17
0.59
2.00
3.02
3.69
4.13
4.53
5.05
5.84
6.90
8.09
9.13
9.68
9.46
8.44
6.78
4.86
3.07
1.73
0.96
0.66
0.60
0.52
0.24
-0.23
-0.74
-1.06
-1.07
-0.79
-0.45
-0.35
-0.71
-1.52
-2.54
-3.43
-3.87
-3.79
-3.34
-2.81
-2.49
-2.45
-2.58
-2.65
-2.45
-1.90
-1.13
-0.33
0.33
0.79
1.10
1.39
1.70
2.01
2.23
2.27
2.12
1.85
1.56
1.32
1.13
0.97
0.82
0.70
0.68
0.81
1.06
1.32
1.46
1.40
1.10
0.63
0.06
-0.58
-1.25
-1.88
-2.37
-2.58
-2.36
-1.69
-0.66
0.51
1.57
2.34
2.74
2.81
2.63
2.35
2.04
1.78
1.59
1.44
1.28
1.04
0.66
0.18
-0.34
-0.77
-1.00
-0.98
-0.72
-0.29
0.19
0.57
0.73
0.58
0.07
-0.74
-1.71
-2.65
-3.39
-3.79
-3.81
-3.49
-2.91
-2.19
-1.42
-0.66
0.06
0.77
1.49
2.23
2.92
3.45
3.72
3.71
3.49
3.17
2.86
2.62
2.43
2.27
2.10
1.93
1.76
1.60
1.40
1.17
0.90
0.65
0.48
0.43
0.50
0.63
0.72
0.63
0.27
-0.40
-1.29
-2.24
-3.05
-3.56
-3.73
-3.61
-3.32
-2.93
-2.47
-1.88
-1.13
-0.26
0.62
1.38
1.90
2.18
2.25
2.19
2.06
1.89
1.72
1.61
1.61
1.77
2.09
2.48
2.82
2.99
2.96
2.74
2.41
2.02
1.59
1.14
0.66
0.20
-0.20
-0.48
-0.64
-0.74
-0.85
-1.04
-1.31
-1.60
-1.79
-1.80
-1.61
-1.28
-0.91
-0.57
-0.30
-0.07
0.17
0.46
0.81
1.16
1.46
1.66
1.77
1.87
2.04
2.35
2.75
3.12
3.34
3.30
3.00
2.52
1.99
1.57
1.33
1.31
1.47
1.69
1.89
1.96
1.87
1.62
1.26
0.84
0.40
-0.08
-0.63
-1.23
-1.86
-2.45
-2.97
-3.39
-3.71
-3.93
-3.98
-3.81
-3.36
-2.66
-1.79
-0.88
-0.04
0.65
1.17
1.54
1.79
1.97
2.09
2.19
2.27
2.33
2.36
2.38
2.37
2.39
2.42
2.45
2.45
2.37
2.21
1.98
1.72
1.46
1.25
1.09
0.99
0.91
0.81
0.66
0.43
0.11
-0.27
-0.67
-1.06
-1.44
-1.79
-2.11
-2.37
-2.50
-2.46
-2.25
-1.93
-1.57
-1.25
-1.01
-0.82
-0.67
-0.52
-0.37
-0.26
-0.17
-0.08
0.06
0.31
0.69
1.13
1.55
1.84
1.91
1.79
1.54
1.32
1.23
1.36
1.65
2.00
2.27
2.31
2.08
1.61
1.01
0.45
0.03
-0.19
-0.26
-0.28
-0.32
-0.43
-0.60
-0.79
-1.00
-1.24
-1.56
-1.96
-2.37
-2.68
-2.75
-2.55
-2.10
-1.53
-0.98
-0.57
-0.31
-0.17
-0.05
0.11
0.32
0.56
0.78
0.95
1.09
1.20
1.31
1.41
1.45
1.37
1.14
0.78
0.38
0.08
-0.00
0.19
0.63
1.17
1.63
1.81
1.58
0.94
0.03
-0.91
-1.67
-2.13
-2.31
-2.34
-2.37
-2.49
-2.65
-2.72
-2.56
-2.13
-1.52
-0.92
-0.52
-0.37
-0.40
-0.41
-0.24
0.17
0.71
1.19
1.41
1.32
1.03
0.73
0.60
0.69
0.93
1.17
1.27
1.21
1.08
1.01
1.03
1.12
1.15
1.00
0.66
0.24
-0.09
-0.18
-0.05
0.19
0.35
0.28
-0.03
-0.50
-1.00
-1.44
-1.82
-2.17
-2.53
-2.85
-2.98
-2.79
-2.21
-1.29
-0.20
0.87
1.77
2.44
2.94
3.38
3.81
4.24
4.62
4.95
5.33
5.94
6.95
8.45
10.29
12.15
13.63
14.37
14.19
13.11
11.34
9.12
6.74
4.40
2.23
0.31
-1.29
-2.60
-3.64
-4.43
-5.06
-5.57
-6.04
-6.51
-7.03
-7.58
-8.10
-8.50
-8.73
-8.82
-8.86
-8.96
-9.12
-9.22
-9.02
-8.30
-6.96
-5.13
-3.09
-1.22
0.15
0.85
0.93
0.61
0.23
0.08
0.36
1.08
2.11
3.22
4.22
4.96
5.40
5.57
5.50
5.24
4.82
4.28
3.67
2.98
2.15
1.06
-0.40
-2.24
-4.32
-6.40
-8.20
-9.53
-10.34
-10.70
-10.74
-10.60
-10.37
-10.08
-9.77
-9.46
-9.17
-8.93
-8.75
-8.59
-8.43
-8.23
-7.98
-7.71
-7.40
-7.00
-6.35
-5.24
-3.48
-0.98
2.11
5.42
8.45
10.75
12.03
12.31
11.80
10.84
9.72
8.59
7.49
6.35
5.18
4.07
3.19
2.72
2.73
3.10
3.60
3.93
3.86
3.33
2.44
1.39
0.41
-0.33
-0.73
-0.77
-0.51
-0.04
0.56
1.20
1.82
2.31
2.55
2.46
1.97
1.16
0.20
-0.65
-1.20
-1.36
-1.16
-0.75
-0.27
0.22
0.70
1.17
1.60
1.92
2.01
1.81
1.35
0.78
0.28
0.03
0.11
0.51
1.15
1.89
2.67
3.44
4.19
4.90
5.49
5.94
6.24
6.50
6.90
7.53
8.36
9.19
9.70
9.61
8.80
7.32
5.36
3.13
0.80
-1.57
-3.94
-6.33
-8.74
-11.22
-13.82
-16.52
-19.15
-21.34
-22.61
-22.46
-20.60
-17.03
-12.12
-6.56
-1.20
3.10
5.73
6.55
5.92
4.57
3.37
2.95
3.57
5.14
7.29
9.59
11.54
12.55
11.93
9.09
3.86
-3.24
-10.97
-17.71
-21.92
-22.76
-20.27
-15.30
-9.16
-3.17
1.61
4.57
5.57
4.81
2.80
0.20
-2.30
-4.16
-5.08
-5.03
-4.22
-2.96
-1.57
-0.27
0.79
1.51
1.85
1.80
1.42
0.88
0.39
0.12
0.17
0.47
0.86
1.19
1.39
1.46
1.51
1.61
1.79
2.01
2.19
2.25
2.17
1.99
1.75
1.52
1.27
0.97
0.59
0.15
-0.30
-0.66
-0.83
-0.83
-0.73
-0.65
-0.68
-0.84
-1.05
-1.18
-1.14
-0.89
-0.50
-0.06
0.35
0.71
1.00
1.25
1.45
1.60
1.68
1.68
1.59
1.38
1.07
0.68
0.25
-0.11
-0.34
-0.44
-0.49
-0.59
-0.82
-1.16
-1.51
-1.73
-1.74
-1.55
-1.25
-0.93
-0.66
-0.41
-0.16
0.11
0.42
0.75
1.09
1.42
1.72
1.95
2.04
1.94
1.66
1.27
0.94
0.78
0.88
1.17
1.53
1.76
1.75
1.47
1.02
0.56
0.23
0.09
0.10
0.13
0.07
-0.15
-0.52
-0.98
-1.42
-1.73
-1.85
-1.76
-1.51
-1.17
-0.86
-0.65
-0.54
-0.46
-0.29
0.03
0.47
0.95
1.33
1.56
1.66
1.73
1.86
2.07
2.30
2.46
2.47
2.33
2.08
1.80
1.54
1.31
1.08
0.85
0.61
0.37
0.11
-0.19
-0.54
-0.94
-1.34
-1.64
-1.79
-1.75
-1.56
-1.29
-1.05
-0.88
-0.78
-0.67
-0.46
-0.11
0.33
0.76
1.07
1.21
1.22
1.22
1.27
1.39
1.52
1.56
1.50
1.39
1.34
1.41
1.58
1.75
1.79
1.65
1.38
1.07
0.78
0.52
0.29
0.06
-0.14
-0.30
-0.42
-0.51
-0.62
-0.75
-0.90
-1.05
-1.21
-1.38
-1.55
-1.69
-1.71
-1.52
-1.11
-0.56
-0.04
0.32
0.44
0.35
0.18
0.04
-0.02
0.01
0.07
0.15
0.25
0.39
0.61
0.88
1.15
1.33
1.34
1.17
0.83
0.40
-0.02
-0.36
-0.60
-0.74
-0.81
-0.84
-0.84
-0.84
-0.87
-0.94
-1.06
-1.17
-1.25
-1.24
-1.16
-1.01
-0.80
-0.53
-0.20
0.14
0.44
0.66
0.76
0.79
0.78
0.74
0.65
0.48
0.19
-0.13
-0.37
-0.41
-0.22
0.10
0.33
0.32
0.03
-0.45
-0.92
-1.24
-1.34
-1.32
-1.30
-1.42
-1.69
-2.07
-2.48
-2.83
-3.10
-3.29
-3.40
-3.41
-3.29
-3.04
-2.69
-2.34
-2.06
-1.91
-1.88
-1.90
-1.87
-1.74
-1.51
-1.20
-0.85
-0.49
-0.15
0.14
0.38
0.54
0.59
0.53
0.35
0.08
-0.26
-0.63
-1.01
-1.33
-1.52
-1.49
-1.19
-0.63
0.06
0.68
1.01
0.94
0.51
-0.07
-0.58
-0.85
-0.83
-0.61
-0.29
0.04
0.38
0.73
1.12
1.48
1.74
1.83
1.71
1.42
1.03
0.61
0.23
-0.04
-0.12
0.14
0.82
1.96
3.43
4.96
6.16
6.71
6.43
5.40
3.92
2.42
1.22
0.49
0.19
0.19
0.38
0.69
1.11
1.59
2.04
2.31
2.24
1.78
0.99
0.09
-0.64
-0.98
-0.80
-0.15
0.84
1.96
3.01
3.85
4.44
4.77
4.92
5.03
5.18
5.45
5.81
6.16
6.32
6.12
5.44
4.31
2.82
1.16
-0.45
-1.75
-2.48
-2.52
-1.88
-0.86
0.14
0.69
0.57
-0.19
-1.29
-2.33
-2.99
-3.13
-2.78
-2.10
-1.24
-0.37
0.34
0.76
0.81
0.47
-0.12
-0.76
-1.21
-1.34
-1.18
-0.91
-0.75
-0.85
-1.23
-1.76
-2.18
-2.29
-1.96
-1.23
-0.26
0.74
1.62
2.28
2.71
2.96
3.09
3.15
3.16
3.04
2.67
1.91
0.64
-1.09
-3.04
-4.78
-5.81
-5.77
-4.55
-2.41
0.12
2.46
4.16
5.00
4.98
4.26
3.04
1.56
0.10
-1.07
-1.70
-1.68
-1.05
-0.02
1.11
2.12
2.85
3.27
3.39
3.18
2.63
1.77
0.70
-0.39
-1.28
-1.87
-2.12
-2.14
-1.98
-1.69
-1.24
-0.64
-0.01
0.47
0.62
0.40
-0.08
-0.58
-0.88
-0.92
-0.77
-0.61
-0.55
-0.57
-0.52
-0.31
0.06
0.45
0.64
0.54
0.18
-0.26
-0.57
-0.64
-0.49
-0.23
0.01
0.18
0.27
0.28
0.21
0.04
-0.27
-0.70
-1.15
-1.48
-1.57
-1.38
-0.92
-0.26
0.51
1.31
2.05
2.65
3.02
3.13
3.04
2.85
2.73
2.74
2.88
3.03
3.03
2.80
2.33
1.73
1.13
0.63
0.31
0.21
0.35
0.73
1.28
1.85
2.21
2.16
1.65
0.76
-0.28
-1.26
-2.08
-2.74
-3.33
-3.86
-4.30
-4.49
-4.35
-3.92
-3.39
-2.99
-2.92
-3.19
-3.66
-4.12
-4.45
-4.62
-4.75
-4.97
-5.32
-5.74
-6.08
-6.25
-6.23
-6.11
-6.04
-6.11
-6.33
-6.61
-6.80
-6.77
-6.47
-5.93
-5.25
-4.55
-3.95
-3.49
-3.15
-2.88
-2.62
-2.32
-1.97
-1.51
-0.89
-0.03
1.11
2.50
4.00
5.41
6.50
7.13
7.28
7.04
6.59
6.10
5.71
5.48
5.45
5.60
5.89
6.25
6.62
6.95
7.19
7.36
7.46
7.52
7.57
7.68
7.91
8.32
8.87
9.50
10.06
10.44
10.55
10.39
10.00
9.48
8.89
8.31
7.70
6.98
6.03
4.73
3.07
1.18
-0.73
-2.45
-3.89
-5.16
-6.47
-8.04
-9.90
-11.94
-13.87
-15.47
-16.62
-17.37
-17.85
-18.21
-18.49
-18.68
-18.71
-18.51
-18.05
-17.36
-16.47
-15.44
-14.37
-13.35
-12.46
-11.74
-11.09
-10.32
-9.13
-7.25
-4.54
-1.03
2.96
6.96
10.42
12.82
13.87
13.46
11.78
9.20
6.21
3.36
1.06
-0.40
-0.97
-0.77
-0.05
0.88
1.79
2.54
3.03
3.19
2.92
2.16
0.91
-0.69
-2.38
-3.82
-4.75
-5.02
-4.64
-3.72
-2.39
-0.77
1.05
2.96
4.82
6.45
7.68
8.38
8.52
8.16
7.40
6.35
5.09
3.69
2.27
0.96
-0.01
-0.44
-0.20
0.66
1.90
3.11
3.89
3.99
3.40
2.39
1.35
0.64
0.44
0.73
1.37
2.21
3.12
4.01
4.69
4.89
4.34
2.90
0.64
-2.07
-4.75
-6.99
-8.52
-9.30
-9.40
-8.93
-7.98
-6.64
-5.05
-3.38
-1.85
-0.64
0.17
0.55
0.54
0.15
-0.57
-1.56
-2.69
-3.80
-4.74
-5.45
-5.93
-6.28
-6.59
-6.88
-7.12
-7.24
-7.21
-7.03
-6.81
-6.70
-6.86
-7.47
-8.61
-10.27
-12.33
-14.52
-16.52
-18.03
-18.86
-18.96
-18.38
-17.20
-15.51
-13.38
-10.93
-8.37
-5.91
-3.69
-1.65
0.41
2.72
5.40
8.26
10.94
12.95
13.98
13.90
12.92
11.34
9.53
7.81
6.37
5.36
4.84
4.84
5.27
6.00
6.83
7.55
7.94
7.85
7.20
6.01
4.39
2.56
0.77
-0.74
-1.77
-2.18
-1.89
-0.88
0.81
3.05
5.67
8.44
11.11
13.50
15.44
16.74
17.21
16.62
14.88
12.14
8.78
5.42
2.66
0.91
0.23
0.37
0.93
1.49
1.80
1.78
1.49
1.01
0.41
-0.28
-1.05
-1.87
-2.67
-3.36
-3.89
-4.26
-4.49
-4.66
-4.81
-4.97
-5.14
-5.33
-5.51
-5.70
-5.90
-6.10
-6.33
-6.62
-7.05
-7.67
-8.42
-9.13
-9.60
-9.73
-9.53
-9.15
-8.78
-8.43
-7.95
-7.11
-5.74
-3.91
-1.93
-0.18
1.08
1.82
2.21
2.44
2.64
2.81
2.93
3.05
3.26
3.64
4.13
4.55
4.62
4.19
3.30
2.20
1.17
0.46
0.20
0.37
0.91
1.72
2.71
3.78
4.78
5.56
5.97
5.96
5.55
4.86
4.02
3.18
2.44
1.93
1.71
1.83
2.25
2.86
3.50
4.05
4.43
4.66
4.73
4.64
4.32
3.70
2.84
1.88
1.02
0.37
-0.11
-0.59
-1.22
-2.05
-2.93
-3.61
-3.91
-3.78
-3.33
-2.70
-1.98
-1.17
-0.26
0.71
1.54
2.05
2.07
1.63
0.96
0.35
0.08
0.26
0.85
1.68
2.56
3.38
4.10
4.73
5.28
5.70
5.86
5.64
4.96
3.88
2.60
1.43
0.63
0.33
0.48
0.84
1.13
1.14
0.81
0.26
-0.37
-0.90
-1.29
-1.53
-1.66
-1.70
-1.60
-1.33
-0.85
-0.25
0.40
0.97
1.43
1.81
2.15
2.47
2.74
2.91
2.97
2.96
2.95
2.98
3.02
2.99
2.79
2.41
1.92
1.46
1.17
1.08
1.17
1.32
1.45
1.47
1.38
1.19
0.94
0.65
0.34
-0.01
-0.42
-0.90
-1.46
-2.07
-2.67
-3.21
-3.63
-3.88
-3.94
-3.80
-3.46
-2.95
-2.33
-1.67
-1.05
-0.53
-0.10
0.32
0.80
1.35
1.90
2.33
2.53
2.50
2.34
2.20
2.20
2.33
2.48
2.57
2.57
2.54
2.58
2.75
3.00
3.19
3.18
2.91
2.43
1.88
1.41
1.08
0.88
0.69
0.43
0.04
-0.45
-0.98
-1.42
-1.72
-1.86
-1.87
-1.82
-1.75
-1.69
-1.60
-1.49
-1.30
-1.03
-0.67
-0.22
0.27
0.73
1.06
1.20
1.15
0.98
0.84
0.88
1.16
1.62
2.12
2.48
2.56
2.35
1.93
1.45
1.07
0.86
0.83
0.92
1.07
1.23
1.38
1.52
1.59
1.52
1.18
0.57
-0.26
-1.11
-1.75
-2.03
-1.97
-1.73
-1.54
-1.58
-1.93
-2.48
-3.07
-3.54
-3.74
-3.65
-3.31
-2.81
-2.28
-1.81
-1.45
-1.19
-0.97
-0.74
-0.50
-0.27
-0.07
0.09
0.25
0.47
0.76
1.08
1.35
1.48
1.45
1.29
1.07
0.89
0.81
0.84
0.99
1.25
1.58
1.93
2.21
2.34
2.25
1.98
1.62
1.28
1.04
0.93
0.84
0.69
0.39
-0.03
-0.48
-0.88
-1.15
-1.29
-1.38
-1.48
-1.60
-1.72
-1.78
-1.73
-1.58
-1.32
-0.98
-0.55
-0.01
0.60
1.23
1.75
2.07
2.16
2.07
1.91
1.74
1.57
1.37
1.11
0.80
0.47
0.17
-0.12
-0.42
-0.70
-0.88
-0.85
-0.54
-0.01
0.55
0.93
0.99
0.72
0.26
-0.22
-0.60
-0.85
-1.03
-1.19
-1.35
-1.53
-1.78
-2.14
-2.65
-3.25
-3.84
-4.23
-4.30
-3.99
-3.41
-2.73
-2.14
-1.72
-1.46
-1.21
-0.87
-0.40
0.13
0.60
0.92
1.11
1.27
1.51
1.87
2.28
2.62
2.76
2.68
2.44
2.17
1.99
1.94
1.95
1.91
1.68
1.22
0.56
-0.15
-0.75
-1.13
-1.24
-1.15
-1.01
-0.92
-0.94
-1.07
-1.30
-1.58
-1.92
-2.30
-2.66
-2.90
-2.92
-2.67
-2.24
-1.76
-1.41
-1.24
-1.24
-1.26
-1.19
-0.94
-0.55
-0.12
0.21
0.36
0.32
0.18
0.06
0.08
0.32
0.80
1.43
2.13
2.77
3.32
3.78
4.22
4.65
5.02
5.19
5.00
4.32
3.17
1.67
0.10
-1.31
-2.36
-3.00
-3.30
-3.38
-3.38
-3.40
-3.46
-3.55
-3.61
-3.57
-3.36
-2.91
-2.28
-1.61
-1.19
-1.38
-2.44
-4.39
-6.91
-9.40
-11.19
-11.78
-11.03
-9.20
-6.79
-4.33
-2.20
-0.54
0.66
1.47
1.90
1.95
1.66
1.17
0.74
0.62
0.98
1.85
3.09
4.46
5.67
6.48
6.72
6.32
5.36
3.98
2.40
0.78
-0.80
-2.34
-3.86
-5.28
-6.39
-7.00
-7.02
-6.61
-6.17
-6.14
-6.77
-7.98
-9.35
-10.27
-10.10
-8.42
-5.12
-0.42
5.11
10.58
14.89
17.04
16.39
13.03
7.76
1.87
-3.34
-6.94
-8.63
-8.63
-7.36
-5.26
-2.63
0.34
3.41
6.31
8.73
10.42
11.25
11.18
10.32
8.91
7.32
5.96
5.16
4.99
5.25
5.61
5.79
5.78
5.80
6.21
7.20
8.69
10.32
11.57
12.04
11.51
10.00
7.72
4.93
1.96
-0.82
-2.96
-4.06
-3.84
-2.34
0.09
2.81
5.14
6.49
6.59
5.42
3.21
0.27
-3.06
-6.46
-9.66
-12.50
-14.93
-16.97
-18.68
-19.98
-20.64
-20.33
-18.76
-15.91
-12.05
-7.75
-3.63
-0.26
2.08
3.37
3.81
3.74
3.55
3.59
4.11
5.19
6.70
8.34
9.73
10.50
10.40
9.39
7.59
5.31
2.87
0.58
-1.37
-2.95
-4.23
-5.34
-6.34
-7.25
-7.99
-8.54
-8.92
-9.31
-9.93
-10.94
-12.39
-14.14
-15.94
-17.51
-18.59
-18.94
-18.37
-16.78
-14.14
-10.61
-6.54
-2.38
1.30
4.03
5.51
5.65
4.61
2.80
0.75
-0.91
-1.63
-1.12
0.62
3.34
6.57
9.75
12.31
13.77
13.86
12.55
10.03
6.74
3.40
0.69
-0.95
-1.42
-0.94
0.18
1.65
3.22
4.66
5.88
6.76
7.08
6.64
5.45
3.82
2.26
1.27
1.10
2.00
3.98
6.86
10.30
13.97
17.64
21.26
24.76
26.42
24.98
20.45
14.34
8.53
4.22
1.64
0.44
-0.02
-0.40
-0.90
-1.49
-2.07
-2.71
-3.24
-3.93
-4.83
-5.90
-7.03
-7.97
-8.49
-8.58
-8.34
-7.97
-7.55
-7.05
-6.42
-5.68
-4.89
-4.10
-3.35
-2.67
-2.07
-1.51
-0.91
-0.29
0.27
0.71
1.01
1.21
1.31
1.34
1.28
1.18
1.05
0.95
0.94
1.06
1.32
1.61
1.81
1.79
1.52
1.11
0.75
0.60
0.72
1.04
1.36
1.47
1.32
1.01
0.74
0.76
1.14
1.79
2.50
3.05
3.36
3.46
3.50
3.62
3.89
4.23
4.57
4.79
4.84
4.77
4.64
4.49
4.33
4.10
3.73
3.21
2.56
1.86
1.20
0.62
0.14
-0.29
-0.75
-1.26
-1.79
-2.29
-2.65
-2.80
-2.76
-2.62
-2.53
-2.63
-2.96
-3.46
-3.95
-4.27
-4.33
-4.16
-3.85
-3.46
-2.99
-2.39
-1.65
-0.82
-0.05
0.49
0.70
0.59
0.26
-0.14
-0.50
-0.74
-0.84
-0.84
-0.81
-0.81
-0.89
-1.08
-1.35
-1.71
-2.13
-2.61
-3.11
-3.57
-3.86
-3.87
-3.58
-3.11
-2.62
-2.30
-2.18
-2.18
-2.17
-2.02
-1.76
-1.51
-1.37
-1.42
-1.61
-1.82
-1.96
-2.01
-1.98
-1.92
-1.81
-1.60
-1.24
-0.75
-0.21
0.26
0.59
0.80
0.97
1.20
1.49
1.77
1.95
1.97
1.88
1.78
1.79
1.95
2.17
2.31
2.27
2.04
1.72
1.45
1.33
1.37
1.50
1.62
1.67
1.60
1.42
1.12
0.72
0.27
-0.17
-0.52
-0.77
-0.97
-1.22
-1.57
-1.99
-2.37
-2.64
-2.78
-2.90
-3.11
-3.44
-3.80
-4.02
-3.99
-3.71
-3.33
-3.04
-2.93
-2.95
-2.92
-2.68
-2.18
-1.51
-0.86
-0.43
-0.29
-0.40
-0.61
-0.74
-0.66
-0.34
0.17
0.76
1.28
1.63
1.75
1.64
1.34
0.91
0.45
0.03
-0.30
-0.53
-0.73
-0.97
-1.26
-1.59
-1.88
-2.07
-2.14
-2.11
-2.03
-1.95
-1.91
-1.92
-1.98
-2.07
-2.16
-2.19
-2.13
-1.96
-1.72
-1.45
-1.18
-0.92
-0.62
-0.23
0.24
0.76
1.24
1.61
1.83
1.89
1.81
1.62
1.38
1.14
1.01
1.05
1.29
1.66
2.03
2.27
2.29
2.08
1.72
1.31
0.95
0.66
0.41
0.15
-0.17
-0.55
-0.93
-1.22
-1.37
-1.40
-1.39
-1.45
-1.63
-1.91
-2.19
-2.36
-2.36
-2.23
-2.10
-2.07
-2.17
-2.35
-2.46
-2.42
-2.19
-1.86
-1.52
-1.23
-1.01
-0.79
-0.54
-0.26
0.02
0.24
0.39
0.51
0.69
0.97
1.33
1.64
1.78
1.67
1.38
1.07
0.91
0.96
1.17
1.36
1.40
1.23
0.92
0.62
0.41
0.31
0.25
0.11
-0.12
-0.43
-0.71
-0.89
-0.96
-1.00
-1.10
-1.30
-1.59
-1.89
-2.07
-2.07
-1.89
-1.59
-1.29
-1.08
-1.00
-1.02
-1.05
-1.03
-0.90
-0.70
-0.51
-0.40
-0.42
-0.56
-0.79
-1.03
-1.22
-1.31
-1.30
-1.20
-1.02
-0.80
-0.54
-0.30
-0.14
-0.09
-0.17
-0.33
-0.50
-0.61
-0.61
-0.52
-0.38
-0.26
-0.17
-0.11
-0.02
0.08
0.13
0.05
-0.20
-0.55
-0.80
-0.75
-0.31
0.46
1.31
1.93
2.13
1.91
1.44
0.98
0.70
0.64
0.67
0.63
0.45
0.19
-0.01
-0.03
0.16
0.45
0.70
0.77
0.66
0.44
0.21
0.00
-0.17
-0.36
-0.60
-0.86
-1.09
-1.23
-1.29
-1.26
-1.22
-1.21
-1.25
-1.38
-1.60
-1.88
-2.15
-2.34
-2.35
-2.12
-1.69
-1.16
-0.64
-0.26
-0.11
-0.21
-0.53
-0.97
-1.39
-1.64
-1.63
-1.34
-0.85
-0.29
0.23
0.63
0.89
1.02
1.05
1.01
0.94
0.89
0.92
1.05
1.28
1.58
1.86
2.06
2.13
2.05
1.82
1.43
0.93
0.36
-0.19
-0.67
-1.01
-1.18
-1.17
-0.99
-0.69
-0.29
0.16
0.60
0.99
1.29
1.48
1.56
1.57
1.55
1.54
1.51
1.41
1.15
0.71
0.18
-0.26
-0.43
-0.25
0.19
0.68
0.96
0.93
0.63
0.25
-0.03
-0.11
-0.05
-0.00
-0.09
-0.35
-0.72
-1.14
-1.58
-2.10
-2.75
-3.53
-4.31
-4.87
-5.00
-4.63
-3.84
-2.88
-2.02
-1.42
-1.12
-1.02
-0.96
-0.83
-0.56
-0.20
0.16
0.44
0.55
0.47
0.24
-0.06
-0.29
-0.37
-0.22
0.11
0.53
0.90
1.10
1.10
0.91
0.58
0.19
-0.23
-0.65
-1.07
-1.46
-1.78
-2.00
-2.15
-2.27
-2.44
-2.65
-2.84
-2.88
-2.65
-2.09
-1.30
-0.43
0.34
0.88
1.19
1.32
1.36
1.38
1.41
1.43
1.45
1.46
1.51
1.61
1.78
1.96
2.07
2.05
1.89
1.64
1.37
1.13
0.90
0.63
0.25
-0.24
-0.74
-1.09
-1.20
-1.11
-0.97
-0.97
-1.22
-1.68
-2.19
-2.59
-2.78
-2.73
-2.50
-2.10
-1.55
-0.84
-0.07
0.66
1.18
1.41
1.37
1.18
0.99
0.90
0.95
1.09
1.29
1.52
1.75
1.95
2.08
2.10
1.97
1.73
1.43
1.11
0.83
0.61
0.44
0.31
0.17
-0.02
-0.28
-0.62
-0.95
-1.18
-1.25
-1.12
-0.84
-0.51
-0.23
-0.05
0.04
0.12
0.27
0.51
0.84
1.22
1.62
2.04
2.53
3.10
3.76
4.44
5.09
5.60
5.95
6.13
6.22
6.27
6.33
6.39
6.36
6.13
5.60
4.76
3.76
2.89
2.49
2.89
4.26
6.57
9.62
13.07
16.49
19.40
21.32
21.82
20.59
17.62
13.22
8.03
2.81
-1.72
-5.14
-7.30
-8.25
-8.08
-6.85
-4.59
-1.46
2.17
5.70
8.50
10.08
10.25
9.14
7.02
4.25
1.09
-2.24
-5.49
-8.43
-10.74
-12.19
-12.63
-12.06
-10.66
-8.74
-6.66
-4.80
-3.46
-2.87
-3.11
-4.18
-5.93
-8.15
-10.55
-12.77
-14.47
-15.34
-15.19
-13.94
-11.71
-8.75
-5.43
-2.18
0.62
2.68
3.89
4.25
3.89
2.97
1.68
0.20
-1.24
-2.46
-3.27
-3.57
-3.31
-2.51
-1.26
0.27
1.80
2.98
3.47
3.04
1.74
-0.16
-2.20
-3.90
-4.94
-5.24
-4.95
-4.33
-3.63
-3.03
-2.60
-2.29
-2.07
-1.91
-1.81
-1.81
-1.92
-2.09
-2.19
-2.11
-1.78
-1.24
-0.62
-0.11
0.13
0.01
-0.45
-1.16
-1.99
-2.78
-3.35
-3.57
-3.32
-2.57
-1.40
-0.00
1.38
2.49
3.16
3.29
2.90
2.08
0.98
-0.25
-1.39
-2.28
-2.77
-2.78
-2.36
-1.63
-0.79
-0.00
0.61
1.02
1.24
1.30
1.24
1.09
0.83
0.52
0.22
-0.02
-0.15
-0.19
-0.19
-0.17
-0.12
0.00
0.21
0.48
0.74
0.90
0.95
0.89
0.79
0.66
0.48
0.21
-0.16
-0.58
-0.96
-1.21
-1.31
-1.33
-1.33
-1.36
-1.36
-1.26
-0.94
-0.39
0.34
1.14
1.88
2.44
2.78
2.90
2.85
2.69
2.46
2.21
1.94
1.69
1.51
1.45
1.53
1.70
1.86
1.92
1.84
1.66
1.44
1.24
1.04
0.76
0.36
-0.12
-0.54
-0.66
-0.30
0.60
1.94
3.50
4.96
6.02
6.44
6.09
5.05
3.54
1.91
0.52
-0.40
-0.76
-0.68
-0.34
0.10
0.50
0.83
1.07
1.21
1.23
1.06
0.63
-0.06
-0.96
-1.90
-2.66
-3.04
-2.96
-2.53
-2.04
-1.79
-1.99
-2.61
-3.42
-4.04
-4.23
-3.94
-3.37
-2.82
-2.52
-2.54
-2.73
-2.87
-2.75
-2.28
-1.49
-0.49
0.62
1.75
2.76
3.48
3.73
3.45
2.77
2.06
1.77
2.23
3.48
5.23
6.94
8.08
8.35
7.69
6.33
4.60
2.84
1.26
-0.01
-0.97
-1.63
-2.02
-2.13
-2.00
-1.69
-1.38
-1.28
-1.57
-2.26
-3.21
-4.07
-4.50
-4.30
-3.49
-2.31
-1.12
-0.24
0.20
0.25
0.08
-0.08
-0.08
0.07
0.26
0.35
0.26
0.03
-0.15
-0.11
0.28
1.00
1.91
2.85
3.70
4.40
4.98
5.48
5.90
6.23
6.45
6.55
6.55
6.44
6.17
5.62
4.65
3.18
1.26
-0.91
-3.00
-4.65
-5.55
-5.53
-4.59
-2.94
-0.90
1.14
2.86
4.08
4.77
5.04
5.02
4.88
4.65
4.37
4.07
3.81
3.65
3.62
3.65
3.57
3.24
2.60
1.73
0.84
0.10
-0.36
-0.58
-0.70
-0.86
-1.16
-1.59
-2.07
-2.48
-2.75
-2.80
-2.61
-2.18
-1.51
-0.66
0.21
0.90
1.16
0.80
-0.16
-1.52
-2.86
-3.76
-3.93
-3.34
-2.27
-1.08
-0.11
0.51
0.82
0.91
0.86
0.69
0.39
0.01
-0.29
-0.27
0.21
1.14
2.31
3.38
4.05
4.19
3.89
3.37
2.83
2.43
2.18
2.02
1.81
1.43
0.77
-0.19
-1.40
-2.72
-3.91
-4.74
-5.10
-5.01
-4.61
-4.08
-3.53
-2.93
-2.18
-1.25
-0.18
0.82
1.51
1.72
1.43
0.77
-0.06
-0.89
-1.62
-2.24
-2.73
-3.04
-3.06
-2.73
-2.01
-1.02
0.05
1.02
1.73
2.13
2.22
2.08
1.82
1.58
1.52
1.74
2.21
2.78
3.15
3.09
2.49
1.45
0.22
-0.94
-1.85
-2.49
-2.97
-3.41
-3.92
-4.50
-5.11
-5.65
-5.99
-6.00
-5.61
-4.83
-3.78
-2.73
-2.00
-1.85
-2.32
-3.14
-3.84
-3.79
-2.53
0.06
3.64
7.47
10.63
12.35
12.29
10.63
7.92
4.86
1.99
-0.39
-2.23
-3.60
-4.53
-5.01
-4.96
-4.39
-3.43
-2.34
-1.46
-1.04
-1.22
-1.93
-2.97
-4.02
-4.82
-5.26
-5.37
-5.26
-5.09
-4.92
-4.69
-4.32
-3.74
-3.00
-2.25
-1.71
-1.52
-1.72
-2.19
-2.72
-3.15
-3.42
-3.59
-3.77
-3.99
-4.22
-4.31
-4.16
-3.77
-3.32
-3.01
-3.03
-3.39
-3.97
-4.59
-5.06
-5.29
-5.27
-5.02
-4.61
-4.08
-3.49
-2.86
-2.19
-1.44
-0.57
0.44
1.46
2.32
2.79
2.78
2.37
1.83
1.45
1.41
1.72
2.21
2.63
2.79
2.63
2.19
1.56
0.80
-0.05
-0.95
-1.84
-2.58
-3.05
-3.22
-3.15
-3.01
-2.97
-3.11
-3.41
-3.70
-3.83
-3.66
-3.21
-2.65
-2.21
-2.09
-2.33
-2.77
-3.12
-3.01
-2.19
-0.61
1.58
4.02
6.34
8.19
9.41
10.02
10.17
10.11
10.09
10.22
10.51
10.88
11.22
11.48
11.70
11.96
12.35
12.90
13.53
14.08
14.36
14.14
13.20
11.37
8.60
4.97
0.73
-3.72
-7.94
-11.53
-14.18
-15.77
-16.32
-15.98
-15.03
-13.80
-12.68
-11.95
-11.82
-12.31
-13.24
-14.28
-15.11
-15.48
-15.35
-14.86
-14.26
-13.77
-13.51
-13.47
-13.55
-13.59
-13.49
-13.15
-12.46
-11.26
-9.42
-6.82
-3.49
0.43
4.70
8.92
12.67
15.53
17.19
17.58
16.98
15.99
15.37
15.77
17.46
20.21
23.30
25.73
26.54
25.12
21.41
15.96
9.79
4.07
-0.20
-2.50
-2.82
-1.64
0.36
2.53
4.42
5.78
6.47
6.36
5.37
3.48
0.79
-2.43
-5.78
-8.84
-11.27
-12.90
-13.73
-13.83
-13.30
-12.33
-11.08
-9.73
-8.43
-7.28
-6.37
-5.76
-5.32
-4.84
-4.21
-3.37
-2.32
-1.11
0.17
1.40
2.39
3.14
3.64
3.75
3.31
2.33
1.02
-0.11
-0.54
0.20
2.59
6.76
12.28
18.26
23.66
27.56
29.53
29.52
26.50
20.64
13.47
7.04
2.59
0.48
-0.19
-0.08
0.40
1.06
1.68
2.10
2.05
1.28
-0.24
-2.31
-4.53
-6.65
-8.63
-10.40
-11.98
-13.43
-14.72
-15.69
-16.07
-15.62
-14.39
-12.69
-10.91
-9.38
-8.32
-7.79
-7.56
-7.27
-6.45
-4.75
-2.05
1.62
5.96
10.43
14.31
16.95
18.08
17.92
17.15
16.56
16.69
17.52
18.50
18.82
17.88
15.63
12.51
9.16
6.04
3.18
0.30
-2.91
-6.56
-10.42
-14.11
-17.20
-19.46
-20.76
-21.08
-20.41
-18.68
-15.89
-12.11
-7.58
-2.70
1.96
5.80
8.28
9.01
7.94
5.34
1.83
-1.83
-4.95
-7.06
-8.01
-7.88
-6.85
-5.11
-2.78
0.03
3.16
6.28
9.03
11.02
11.98
11.78
10.45
8.15
5.13
1.74
-1.66
-4.73
-7.22
-9.07
-10.37
-11.33
-12.18
-13.12
-14.24
-15.55
-17.05
-18.73
-20.59
-22.57
-24.56
-26.31
-27.50
-27.78
-26.90
-24.80
-21.68
-18.01
-14.38
-11.35
-9.30
-8.29
-8.07
-8.24
-8.43
-8.41
-8.13
-7.65
-6.97
-6.04
-4.77
-3.21
-1.57
-0.20
0.61
0.89
1.06
1.75
3.49
6.37
9.93
13.36
15.89
17.07
16.88
15.60
13.70
11.59
9.56
7.83
6.58
5.95
5.93
6.29
6.69
6.92
6.91
6.69
6.29
5.73
5.05
4.29
3.51
2.74
2.30
2.42
3.02
3.82
4.52
5.14
5.90
7.06
8.78
11.47
15.28
19.92
24.72
29.01
32.42
34.88
36.46
37.31
38.27
40.11
43.15
47.19
51.79
56.62
61.50
66.19
66.30
59.04
44.77
27.05
10.09
-3.59
-13.31
-19.57
-23.37
-25.74
-26.91
-26.90
-25.96
-24.61
-23.49
-22.91
-22.79
-22.87
-22.94
-22.40
-20.89
-18.52
-15.87
-13.63
-12.23
-11.82
-12.01
-12.35
-12.02
-10.34
-7.07
-2.59
2.32
6.76
10.03
11.72
11.74
10.45
8.34
5.80
3.05
0.21
-2.57
-5.10
-7.15
-8.70
-9.77
-10.46
-10.88
-11.16
-11.34
-11.40
-11.33
-11.19
-11.24
-11.77
-12.86
-14.34
-15.79
-16.67
-16.40
-14.62
-11.32
-7.20
-3.25
-0.42
0.73
0.06
-2.22
-5.65
-9.68
-13.75
-17.71
-21.27
-23.92
-25.02
-24.30
-22.09
-19.23
-16.65
-15.00
-14.97
-16.64
-19.55
-22.95
-26.29
-29.42
-32.40
-35.24
-34.64
-28.82
-18.37
-5.81
6.32
16.51
24.07
28.71
30.44
29.63
26.43
21.35
15.36
9.61
4.96
1.84
0.28
-0.16
0.61
2.15
3.97
5.70
7.14
8.17
8.76
9.03
9.25
9.84
10.75
11.83
12.88
13.78
14.38
14.61
14.34
13.56
12.50
11.30
10.24
9.65
9.80
10.66
11.85
12.80
12.97
12.07
10.07
7.25
4.16
1.35
-0.84
-2.41
-3.63
-4.79
-6.09
-7.54
-9.01
-10.28
-11.23
-11.96
-12.72
-13.72
-14.92
-16.06
-16.75
-16.64
-15.42
-13.00
-9.48
-5.22
-0.71
3.42
6.41
7.63
6.60
3.41
-0.85
-4.54
-6.40
-6.09
-4.23
-1.81
0.35
1.83
2.68
3.36
4.37
6.09
8.86
12.71
17.12
21.06
23.33
23.08
20.28
15.74
10.26
5.38
2.38
1.78
3.23
5.86
8.76
11.35
13.34
14.59
15.10
14.78
13.57
11.58
9.16
6.79
4.98
3.98
3.73
3.97
4.26
4.19
3.53
2.33
0.86
-0.54
-1.62
-2.33
-2.76
-3.14
-3.65
-4.32
-5.03
-5.60
-5.91
-5.98
-5.93
-5.90
-5.97
-6.14
-6.31
-6.38
-6.29
-6.07
-5.76
-5.43
-5.12
-4.88
-4.69
-4.57
-4.48
-4.45
-4.46
-4.49
-4.48
-4.39
-4.25
-4.10
-4.06
-4.16
-4.39
-4.60
-4.63
-4.37
-3.85
-3.24
-2.66
-2.17
-1.72
-1.21
-0.59
0.14
0.91
1.51
1.83
1.96
2.11
2.46
3.06
3.80
4.53
5.10
5.19
4.62
3.51
2.21
1.11
0.44
0.22
0.29
0.43
-0.03
-1.53
-4.04
-6.99
-9.72
-11.79
-13.13
-13.96
-14.66
-16.15
-19.12
-23.59
-29.02
-34.70
-40.06
-44.58
-47.75
-45.43
-35.35
-18.70
0.11
16.47
27.78
33.62
34.99
33.34
30.01
25.23
19.11
12.13
5.25
-0.59
-5.03
-7.49
-8.24
-7.75
-6.88
-6.13
-5.58
-5.01
-4.22
-3.21
-2.05
-0.78
0.69
2.21
3.54
4.45
4.85
4.75
4.29
3.65
3.03
2.66
2.64
3.01
3.80
5.09
6.80
8.72
10.42
11.43
11.54
10.86
9.78
8.89
8.72
9.56
11.42
13.88
16.38
18.45
19.68
19.77
18.48
15.77
11.74
6.76
1.19
-4.55
-9.96
-14.66
-18.46
-21.41
-23.68
-25.57
-25.93
-24.09
-20.35
-15.88
-12.06
-9.70
-9.30
-10.06
-11.03
-11.34
-10.69
-9.14
-6.43
-2.63
2.08
7.77
13.98
19.78
24.33
26.98
27.62
26.63
25.08
23.38
21.74
20.23
18.73
17.19
15.48
13.40
10.89
7.90
4.32
0.48
-3.03
-5.58
-6.87
-7.12
-6.89
-6.88
-7.65
-9.33
-11.50
-13.51
-14.80
-15.02
-14.65
-13.77
-12.50
-11.01
-9.41
-7.69
-5.89
-4.10
-2.48
-1.18
-0.26
0.21
0.20
-0.26
-0.86
-1.48
-2.09
-2.74
-3.50
-4.36
-5.27
-6.19
-6.95
-7.41
-7.60
-7.68
-7.89
-8.42
-9.26
-10.35
-11.54
-12.62
-13.36
-13.74
-13.90
-14.01
-14.18
-14.40
-14.58
-14.56
-13.96
-12.28
-9.13
-4.49
1.42
8.15
15.16
21.97
27.32
30.04
29.75
27.30
24.15
21.69
20.75
21.52
23.64
26.40
29.01
30.80
32.17
32.60
31.64
29.07
24.94
19.51
13.22
6.73
0.77
-4.68
-9.25
-12.84
-15.75
-18.32
-20.71
-22.74
-24.24
-24.73
-23.82
-21.42
-17.77
-13.29
-8.54
-4.18
-0.83
1.12
1.48
0.50
-1.22
-2.97
-4.26
-5.12
-6.05
-7.79
-10.85
-15.09
-19.71
-23.49
-25.30
-24.47
-20.97
-15.42
-8.72
-1.81
4.73
10.61
15.81
20.31
24.14
27.26
29.64
31.16
31.72
31.32
29.97
27.76
24.73
21.04
16.88
12.40
7.69
2.86
-1.84
-6.13
-9.80
-12.86
-15.22
-16.78
-17.32
-16.62
-14.49
-10.71
-5.35
1.08
7.62
13.39
17.74
20.36
21.34
20.26
17.32
13.29
9.87
7.13
4.55
1.37
-2.79
-7.90
-13.60
-19.12
-23.63
-26.51
-27.56
-26.68
-24.04
-20.10
-15.60
-11.37
-8.03
-5.95
-5.21
-5.66
-6.69
-7.53
-7.64
-6.87
-5.46
-3.78
-2.18
-0.82
0.36
1.76
3.86
7.12
11.57
16.72
21.85
26.41
30.09
32.67
33.99
34.55
34.19
32.81
30.59
27.92
25.34
23.25
21.85
20.94
20.23
19.23
17.44
14.57
10.57
5.68
0.32
-5.10
-10.26
-15.00
-19.32
-23.21
-26.65
-29.65
-32.27
-34.58
-36.64
-38.52
-40.12
-41.36
-42.10
-42.26
-41.99
-41.45
-40.74
-39.95
-39.13
-38.25
-37.30
-36.15
-34.64
-32.66
-29.97
-26.33
-21.67
-16.21
-10.44
-5.07
-0.78
2.87
5.82
7.98
9.52
10.91
12.63
14.94
17.74
20.72
23.55
25.86
27.52
28.53
28.95
28.83
28.21
27.26
26.15
25.07
24.03
23.01
21.93
20.69
19.16
17.27
15.07
12.85
10.64
8.54
6.60
4.88
3.40
2.12
1.01
0.02
-0.91
-1.86
-2.83
-3.81
-4.67
-5.25
-5.46
-5.30
-4.86
-4.34
-3.91
-3.69
-3.65
-3.71
-3.77
-3.77
-3.72
-3.66
-3.66
-3.80
-4.04
-4.33
-4.56
-4.69
-4.78
-4.87
-4.98
-5.05
-4.94
-4.51
-3.67
-2.48
-1.07
0.38
1.68
2.69
3.33
3.59
3.58
3.46
3.45
3.67
4.17
4.81
5.43
5.85
6.01
5.97
5.82
5.67
5.54
5.42
5.31
5.17
5.01
4.84
4.65
4.42
4.09
3.64
3.06
2.40
1.72
1.10
0.60
0.27
0.15
0.23
0.45
0.67
0.79
0.72
0.51
0.27
0.14
0.19
0.41
0.71
0.96
1.12
1.16
1.09
0.93
0.70
0.43
0.19
0.10
0.21
0.59
1.17
1.88
2.61
3.25
3.70
3.86
3.73
3.36
2.90
2.58
2.57
2.94
3.63
4.43
5.14
5.58
5.67
5.44
4.97
4.38
3.75
3.13
2.55
2.01
1.45
0.78
-0.14
-1.41
-3.01
-4.73
-6.16
-6.84
-6.47
-5.07
-3.11
-1.29
-0.34
-0.73
-2.49
-5.28
-8.61
-11.99
-15.04
-17.55
-19.40
-20.53
-20.90
-20.43
-19.14
-17.15
-14.70
-12.07
-9.55
-7.33
-5.50
-4.00
-2.70
-1.45
-0.23
0.91
1.87
2.65
3.36
4.10
4.97
5.95
6.90
7.39
7.09
5.99
4.46
3.09
2.31
2.29
2.86
3.62
3.81
2.87
0.84
-1.58
-3.48
-4.22
-3.56
-1.73
0.64
2.24
1.91
-0.52
-4.13
-7.52
-9.53
-9.73
-8.42
-6.59
-6.06
-8.42
-14.06
-22.27
-31.98
-42.29
-52.15
-59.89
-59.29
-45.81
-20.77
8.56
33.89
50.00
55.68
52.97
45.61
37.27
29.47
21.99
14.25
6.28
-1.11
-6.92
-10.41
-11.48
-10.72
-9.60
-9.81
-11.54
-13.93
-15.58
-15.42
-13.03
-8.68
-3.27
1.77
5.15
6.41
6.01
4.94
4.15
4.21
5.22
6.86
8.51
9.61
10.11
9.99
9.59
9.29
9.29
9.63
10.17
10.60
10.68
10.34
9.66
8.92
8.33
8.03
8.02
8.17
8.32
8.27
7.94
7.35
6.62
5.96
5.45
5.08
4.73
4.21
3.41
2.31
1.09
-0.01
-0.80
-1.18
-1.20
-0.97
-0.62
-0.18
0.33
0.91
1.53
2.15
2.67
2.98
3.02
2.76
2.25
1.61
1.01
0.60
0.46
0.59
0.88
1.19
1.37
1.38
1.20
0.85
0.38
-0.19
-0.79
-1.31
-1.60
-1.58
-1.22
-0.63
0.01
0.51
0.75
0.70
0.47
0.19
0.06
0.18
0.63
1.37
2.34
3.39
4.42
5.36
6.22
7.07
8.02
9.12
10.36
11.65
12.87
13.93
14.80
15.51
16.13
16.74
17.37
17.98
18.54
18.98
19.30
19.49
19.55
19.45
19.11
18.43
17.34
15.81
13.89
11.61
9.00
6.05
2.78
-0.71
-4.29
-7.77
-10.99
-13.86
-16.43
-18.76
-20.90
-22.81
-24.38
-25.64
-26.66
-27.58
-28.47
-29.31
-29.93
-30.18
-29.96
-29.35
-28.70
-28.32
-28.35
-28.71
-29.20
-29.69
-30.15
-30.61
-31.12
-31.90
-33.03
-34.43
-35.85
-36.98
-37.46
-36.96
-35.22
-32.19
-28.40
-24.43
-20.73
-17.47
-14.57
-11.92
-9.52
-7.49
-4.29
0.67
7.12
14.15
20.76
26.30
30.40
32.88
33.90
33.98
33.58
33.19
33.10
33.28
33.38
32.95
31.72
29.76
27.38
24.76
22.08
19.53
17.29
15.53
14.37
13.84
13.86
14.17
14.25
13.67
12.16
9.73
6.62
3.26
0.15
-2.21
-3.26
-2.89
-1.33
0.88
3.00
4.28
4.24
2.80
0.31
-2.56
-5.21
-7.19
-8.44
-9.13
-9.59
-10.05
-10.59
-11.11
-11.49
-11.68
-11.73
-11.79
-11.96
-12.20
-12.37
-12.24
-11.63
-10.50
-9.11
-7.54
-5.94
-4.37
-2.82
-1.26
0.33
1.89
3.31
4.47
5.29
5.71
5.74
5.44
4.91
4.31
3.79
3.46
3.32
3.30
3.25
3.04
2.63
2.13
1.65
1.33
1.16
1.05
0.87
0.56
0.17
-0.11
-0.14
0.15
0.65
1.13
1.37
1.26
0.86
0.36
-0.04
-0.21
-0.18
-0.02
0.16
0.35
0.56
0.84
1.21
1.59
1.87
1.94
1.76
1.39
0.97
0.62
0.39
0.21
-0.04
-0.48
-1.11
-1.80
-2.35
-2.62
-2.58
-2.39
-2.31
-2.56
-3.19
-4.05
-4.86
-5.31
-5.23
-4.63
-3.66
-2.54
-1.46
-0.58
0.04
0.41
0.56
0.56
0.49
0.46
0.58
0.91
1.43
2.04
2.60
2.99
3.11
2.98
2.70
2.38
2.14
2.03
2.02
2.03
1.96
1.73
1.32
0.79
0.21
-0.33
-0.76
-1.09
-1.31
-1.48
-1.63
-1.80
-1.98
-2.17
-2.33
-2.42
-2.42
-2.31
-2.14
-1.96
-1.78
-1.58
-1.27
-0.80
-0.15
0.60
1.35
1.96
2.35
2.51
2.48
2.30
2.08
1.89
1.82
1.92
2.17
2.53
2.91
3.22
3.39
3.40
3.23
2.87
2.30
1.59
0.85
0.22
-0.16
-0.23
-0.10
0.00
-0.16
-0.76
-1.79
-3.04
-4.21
-4.99
-5.26
-5.08
-4.62
-4.11
-3.66
-3.29
-2.93
-2.51
-2.02
-1.49
-0.95
-0.45
0.02
0.45
0.81
1.05
1.11
1.02
0.90
0.89
1.09
1.53
2.09
2.60
2.92
3.00
2.87
2.66
2.47
2.36
2.32
2.29
2.20
2.03
1.79
1.51
1.23
0.95
0.64
0.26
-0.22
-0.81
-1.48
-2.15
-2.76
-3.23
-3.54
-3.67
-3.61
-3.36
-2.95
-2.47
-2.02
-1.66
-1.39
-1.13
-0.76
-0.18
0.57
1.36
1.98
2.29
2.28
2.07
1.84
1.75
1.86
2.11
2.36
2.47
2.37
2.11
1.82
1.64
1.66
1.85
2.08
2.15
1.94
1.42
0.66
-0.17
-0.94
-1.56
-2.01
-2.33
-2.61
-2.94
-3.42
-4.09
-4.93
-5.81
-6.54
-6.99
-7.07
-6.86
-6.45
-5.98
-5.51
-5.05
-4.60
-4.16
-3.74
-3.35
-2.96
-2.50
-1.89
-1.08
-0.11
0.95
1.99
2.95
3.75
4.37
4.84
5.22
5.62
6.13
6.77
7.41
7.86
7.94
7.56
6.82
5.97
5.26
4.84
4.70
4.69
4.63
4.41
4.02
3.54
3.05
2.59
2.14
1.65
1.11
0.57
0.12
-0.13
-0.16
-0.01
0.22
0.44
0.63
0.83
1.13
1.54
2.02
2.46
2.78
2.92
2.93
2.87
2.81
2.80
2.86
2.98
3.15
3.30
3.35
3.23
2.95
2.57
2.20
1.93
1.77
1.61
1.28
0.64
-0.40
-1.80
-3.44
-5.16
-6.75
-8.00
-8.77
-9.04
-8.92
-8.60
-8.32
-8.21
-8.24
-8.29
-8.21
-7.89
-7.36
-6.74
-6.12
-5.49
-4.82
-4.00
-3.05
-2.05
-1.11
-0.29
0.44
1.20
2.11
3.22
4.46
5.66
6.69
7.47
8.01
8.34
8.51
8.54
8.43
8.18
7.85
7.51
7.21
6.98
6.76
6.48
6.04
5.44
4.70
3.87
3.00
2.13
1.30
0.52
-0.19
-0.80
-1.27
-1.58
-1.70
-1.62
-1.35
-0.90
-0.38
0.09
0.38
0.48
0.44
0.44
0.64
1.13
1.84
2.58
3.14
3.38
3.27
2.91
2.45
2.06
1.84
1.82
2.01
2.35
2.77
3.17
3.40
3.36
3.00
2.38
1.63
0.94
0.47
0.29
0.37
0.53
0.57
0.30
-0.30
-1.12
-1.94
-2.53
-2.83
-2.90
-2.88
-2.90
-2.94
-2.93
-2.73
-2.34
-1.82
-1.33
-0.98
-0.78
-0.64
-0.45
-0.18
0.11
0.32
0.35
0.21
-0.02
-0.20
-0.23
-0.06
0.22
0.54
0.80
0.93
0.92
0.77
0.51
0.18
-0.17
-0.50
-0.77
-0.98
-1.18
-1.44
-1.80
-2.30
-2.91
-3.60
-4.34
-5.06
-5.76
-6.37
-6.88
-7.24
-7.44
-7.47
-7.36
-7.15
-6.88
-6.56
-6.20
-5.80
-5.35
-4.82
-4.17
-3.36
-2.37
-1.21
0.02
1.19
2.18
2.94
3.48
3.92
4.36
4.86
5.35
5.75
5.95
5.91
5.70
5.42
5.18
5.03
4.95
4.86
4.67
4.32
3.77
3.02
2.11
1.10
0.09
-0.78
-1.40
-1.69
-1.63
-1.33
-0.93
-0.59
-0.43
-0.44
-0.50
-0.45
-0.16
0.39
1.12
1.82
2.31
2.51
2.45
2.25
2.10
2.10
2.30
2.62
2.95
3.16
3.18
3.03
2.77
2.46
2.15
1.89
1.68
1.51
1.34
1.11
0.83
0.51
0.20
-0.05
-0.15
-0.12
-0.01
0.02
-0.15
-0.58
-1.27
-2.11
-3.00
-3.77
-4.30
-4.48
-4.31
-3.80
-3.04
-2.11
-1.13
-0.25
0.62
1.54
2.48
3.34
3.96
4.29
4.38
4.35
4.32
4.68
5.69
7.28
9.06
10.58
11.53
11.87
11.75
11.25
11.02
11.51
12.78
14.50
16.20
17.58
18.60
19.33
19.80
20.90
23.44
27.77
33.63
40.38
47.41
54.25
60.68
62.12
55.82
41.89
23.70
5.58
-9.53
-20.70
-28.42
-32.94
-35.91
-37.67
-38.08
-37.00
-34.59
-31.18
-26.94
-22.42
-18.01
-14.22
-10.87
-7.80
-5.10
-3.13
-2.33
-2.83
-4.49
-6.92
-9.72
-12.12
-13.80
-15.11
-16.90
-20.09
-24.53
-29.37
-34.04
-37.90
-40.41
-41.49
-41.40
-40.52
-39.02
-36.77
-32.72
-26.50
-18.63
-10.24
-2.54
3.67
8.21
11.30
13.34
14.69
15.46
15.64
15.21
14.25
12.95
11.68
10.81
10.70
11.61
13.41
15.65
17.49
18.04
16.65
13.55
9.19
4.37
0.14
-2.79
-4.19
-4.22
-3.21
-1.42
0.94
3.32
4.57
3.41
-1.11
-8.96
-18.79
-28.15
-34.32
-35.31
-29.65
-19.20
-7.32
2.95
9.98
13.60
14.68
13.72
11.01
7.01
2.70
0.04
1.19
7.47
18.32
30.68
40.07
42.97
38.36
27.83
14.77
2.45
-7.35
-14.50
-19.71
-23.51
-25.70
-25.64
-23.52
-19.50
-14.71
-10.73
-8.80
-9.14
-10.83
-12.26
-11.94
-9.13
-3.83
2.98
9.75
14.76
16.71
14.89
9.15
-0.52
-13.38
-27.33
-38.85
-44.70
-43.70
-37.10
-27.53
-17.53
-8.81
-2.06
2.79
5.80
6.85
6.00
4.19
3.11
4.79
10.72
21.02
34.11
46.69
54.83
55.56
48.23
34.75
18.50
2.91
-10.01
-18.69
-22.35
-21.27
-16.98
-11.29
-5.32
0.45
5.63
9.54
11.51
11.09
8.46
4.53
0.72
-1.61
-2.02
-0.81
1.24
3.33
4.79
5.31
4.92
4.01
3.03
2.26
1.72
1.29
0.92
0.65
0.49
0.49
0.72
1.26
2.07
3.08
4.14
5.19
6.19
7.14
8.11
9.21
10.50
12.02
13.77
15.73
17.83
19.86
21.52
22.46
22.48
21.63
20.19
18.56
17.08
15.90
15.02
14.32
13.81
13.58
13.84
14.74
16.29
18.32
20.55
22.64
24.29
25.30
25.54
24.99
23.67
21.63
18.94
15.70
12.02
8.06
4.04
0.20
-3.28
-6.30
-8.87
-11.14
-13.26
-15.40
-17.62
-19.88
-22.10
-24.17
-25.98
-27.42
-28.39
-28.84
-28.77
-28.28
-27.60
-26.97
-26.55
-26.35
-26.23
-25.96
-25.34
-24.31
-22.94
-21.40
-19.84
-18.39
-17.12
-16.05
-15.20
-14.60
-14.27
-14.19
-14.27
-14.38
-14.37
-14.13
-13.62
-12.88
-12.00
-11.07
-10.18
-9.33
-8.50
-7.70
-6.95
-6.32
-5.85
-5.58
-5.45
-5.38
-5.30
-5.20
-5.12
-5.13
-5.32
-5.72
-6.30
-7.02
-7.74
-8.29
-8.52
-8.34
-7.76
-6.95
-6.11
-5.43
-4.97
-4.69
-4.48
-4.26
-4.03
-3.86
-3.81
-3.85
-3.87
-3.69
-3.21
-2.45
-1.53
-0.66
-0.00
0.39
0.58
0.70
0.82
0.98
1.12
1.20
1.21
1.18
1.16
1.20
1.28
1.40
1.59
1.92
2.47
3.30
4.33
5.40
6.30
6.86
7.01
6.80
6.34
5.77
5.18
4.62
4.11
3.59
3.01
2.31
1.46
0.47
-0.57
-1.52
-2.24
-2.60
-2.55
-2.11
-1.35
-0.39
0.66
1.70
2.67
3.50
4.18
4.71
5.10
5.33
5.32
5.00
4.34
3.40
2.35
1.40
0.68
0.21
-0.14
-0.51
-0.94
-1.39
-1.69
-1.73
-1.54
-1.29
-1.18
-1.32
-1.68
-2.08
-2.32
-2.31
-2.10
-1.79
-1.47
-1.14
-0.76
-0.30
0.21
0.68
1.01
1.20
1.28
1.36
1.49
1.63
1.70
1.59
1.26
0.74
0.10
-0.53
-1.04
-1.34
-1.44
-1.37
-1.24
-1.16
-1.17
-1.28
-1.45
-1.63
-1.78
-1.90
-2.00
-2.05
-2.01
-1.88
-1.64
-1.33
-0.97
-0.57
-0.11
0.44
1.08
1.80
2.52
3.19
3.77
4.22
4.58
4.84
5.04
5.24
5.48
5.82
6.23
6.65
6.95
7.02
6.84
6.47
6.05
5.74
5.64
5.77
6.10
6.55
7.09
7.71
8.44
9.31
10.30
11.33
12.30
13.09
13.66
14.02
14.19
14.17
13.94
13.40
12.48
11.20
9.68
8.15
6.82
5.85
5.21
4.72
4.13
3.16
1.59
-0.63
-3.37
-6.31
-8.98
-10.88
-11.57
-10.83
-8.71
-5.54
-1.84
1.80
4.87
7.04
8.23
8.51
8.03
6.92
5.28
3.18
0.71
-1.94
-4.50
-6.76
-8.55
-9.82
-10.61
-10.96
-10.90
-10.49
-9.80
-8.95
-8.08
-7.30
-6.72
-6.34
-6.14
-6.07
-6.06
-6.04
-5.96
-5.80
-5.58
-5.37
-5.27
-5.33
-5.51
-5.76
-5.98
-6.12
-6.16
-6.09
-5.90
-5.52
-4.94
-4.20
-3.38
-2.64
-2.07
-1.73
-1.56
-1.48
-1.37
-1.21
-0.98
-0.72
-0.48
-0.30
-0.24
-0.32
-0.56
-0.95
-1.45
-1.95
-2.35
-2.58
-2.57
-2.36
-2.03
-1.70
-1.53
-1.59
-1.95
-2.54
-3.27
-3.98
-4.49
-4.69
-4.51
-3.99
-3.24
-2.38
-1.49
-0.57
0.46
1.68
3.16
4.84
6.59
8.17
9.38
10.06
10.18
9.80
9.09
8.25
7.44
6.78
6.25
5.76
5.21
4.50
3.59
2.47
1.13
-0.45
-2.30
-4.40
-6.66
-9.00
-11.30
-13.51
-15.58
-17.44
-18.93
-19.85
-19.99
-19.30
-17.92
-16.19
-14.54
-13.36
-12.82
-12.90
-13.34
-13.82
-14.00
-13.65
-12.70
-11.14
-9.09
-6.65
-3.97
-1.17
1.62
4.31
6.82
9.01
10.72
11.77
12.08
11.68
10.75
9.55
8.38
7.41
6.73
6.39
6.41
6.81
7.57
8.53
9.40
9.89
9.80
9.11
8.00
6.70
5.41
4.20
3.06
1.90
0.67
-0.65
-2.01
-3.35
-4.60
-5.66
-6.48
-7.05
-7.40
-7.62
-7.83
-8.07
-8.31
-8.46
-8.42
-8.14
-7.63
-6.90
-5.93
-4.66
-2.97
-0.75
1.99
5.20
8.74
12.45
16.22
19.95
23.51
26.73
29.39
31.31
32.38
32.57
31.96
30.67
28.85
26.67
24.28
21.81
19.31
16.76
14.11
11.28
8.29
5.19
2.10
-0.83
-3.49
-5.81
-7.78
-9.42
-10.76
-11.86
-12.75
-13.42
-13.82
-13.90
-13.62
-13.04
-12.29
-11.62
-11.25
-11.31
-11.78
-12.45
-13.06
-13.38
-13.35
-13.08
-12.80
-12.73
-13.04
-13.79
-14.97
-16.49
-18.24
-20.02
-21.49
-22.24
-21.84
-20.04
-16.90
-12.81
-8.38
-4.29
-1.07
0.99
1.86
1.67
0.67
-0.90
-2.74
-4.55
-6.05
-7.02
-7.40
-7.30
-6.92
-6.52
-6.27
-6.23
-6.41
-6.74
-7.16
-7.61
-7.98
-8.09
-7.72
-6.74
-5.19
-3.30
-1.39
0.24
1.45
2.29
2.97
3.77
4.94
6.61
8.80
11.46
14.42
17.30
19.57
20.65
20.21
18.18
14.75
10.39
5.76
1.56
-1.64
-3.50
-3.88
-2.74
-0.26
3.21
7.22
11.42
15.51
19.19
22.20
24.33
25.65
26.34
26.60
25.51
22.52
17.92
12.74
8.68
6.02
4.84
5.08
6.32
7.99
9.38
9.76
8.62
5.78
1.44
-3.80
-9.23
-14.03
-17.13
-17.88
-16.57
-14.15
-11.94
-10.23
-8.84
-7.47
-5.90
-4.01
-1.90
0.17
1.90
3.08
3.64
3.72
3.58
3.60
4.05
4.96
6.17
7.34
8.14
8.33
7.82
6.62
4.89
2.80
0.48
-1.94
-4.28
-6.32
-7.82
-8.60
-8.62
-7.91
-6.58
-4.86
-3.06
-1.53
-0.65
-0.78
-2.14
-4.63
-7.77
-10.81
-12.94
-13.62
-12.70
-10.42
-7.30
-3.80
-0.30
3.02
6.01
8.38
9.76
9.84
8.52
6.13
3.30
0.74
-1.01
-1.77
-1.71
-1.19
-0.56
0.02
0.51
0.94
1.27
1.41
1.20
0.58
-0.39
-1.53
-2.55
-3.21
-3.37
-3.05
-2.39
-1.60
-0.85
-0.21
0.36
0.95
1.62
2.32
2.95
3.36
3.45
3.24
2.82
2.35
1.90
1.49
1.08
0.64
0.16
-0.32
-0.78
-1.23
-1.75
-2.42
-3.29
-4.38
-5.69
-7.14
-8.68
-10.21
-11.59
-12.68
-13.30
-13.32
-12.63
-11.20
-9.08
-6.42
-3.45
-0.47
2.23
4.45
6.08
7.16
7.75
7.91
7.73
7.33
6.95
6.87
7.34
8.44
9.99
11.61
12.88
13.45
13.18
12.15
10.66
9.07
7.70
6.76
6.32
6.29
6.48
6.66
6.68
6.40
5.75
4.75
3.47
2.08
0.80
-0.20
-0.78
-0.92
-0.66
-0.10
0.66
1.49
2.24
2.76
2.89
2.60
2.00
1.29
0.63
0.12
-0.18
-0.32
-0.34
-0.31
-0.33
-0.41
-0.58
-1.00
-1.70
-2.51
-3.22
-3.69
-3.89
-4.00
-4.13
-4.37
-5.00
-6.03
-7.12
-7.93
-8.27
-8.13
-7.67
-6.88
-5.72
-4.60
-3.64
-2.60
-1.33
0.22
1.95
3.68
5.48
7.43
9.04
10.13
11.11
12.42
14.41
17.33
18.81
16.92
14.27
11.80
8.52
4.52
0.24
-3.65
-6.39
-7.68
-7.48
-6.08
-4.49
-3.31
-2.58
-2.34
-2.73
-3.64
-5.23
-7.54
-10.32
-13.29
-15.58
-15.86
-13.15
-6.96
2.93
15.65
29.39
41.75
50.30
53.44
50.96
43.77
30.83
14.28
-1.52
-12.65
-18.01
-18.89
-17.30
-14.60
-11.54
-8.48
-5.29
-2.25
-0.05
0.67
-0.00
-1.95
-4.63
-7.35
-9.55
-10.57
-10.45
-9.79
-9.37
-9.73
-11.15
-13.53
-16.54
-19.85
-22.57
-24.14
-24.18
-22.34
-17.33
-8.91
1.91
13.32
23.40
30.70
34.11
33.07
27.76
19.25
9.10
-0.86
-8.99
-14.43
-17.13
-17.81
-17.42
-16.71
-16.04
-15.59
-15.56
-15.60
-15.46
-15.00
-14.20
-12.99
-11.32
-9.17
-6.70
-4.17
-1.79
0.18
1.52
2.09
1.94
1.29
0.45
-0.32
-0.91
-1.21
-1.14
-0.84
-0.54
-0.47
-0.77
-1.39
-2.18
-2.93
-3.31
-3.18
-2.69
-2.25
-2.22
-2.76
-3.70
-4.76
-5.63
-5.94
-5.56
-4.71
-3.80
-3.16
-2.83
-2.63
-2.24
-1.38
0.50
3.86
8.80
15.01
21.85
28.48
33.95
37.27
36.07
29.21
17.92
5.51
-4.74
-11.11
-13.56
-13.07
-10.87
-7.91
-4.41
-0.36
4.02
8.09
11.09
12.52
12.30
10.76
8.49
6.34
5.00
4.73
5.36
6.50
7.77
9.00
9.79
9.87
9.18
7.74
5.60
2.78
-0.57
-4.06
-7.14
-9.30
-10.19
-9.77
-8.44
-6.76
-5.64
-5.67
-6.82
-8.57
-10.17
-10.93
-10.45
-8.68
-5.95
-2.85
-0.01
1.99
2.74
2.10
0.30
-2.18
-4.78
-7.07
-8.85
-10.13
-11.00
-11.51
-11.65
-11.33
-10.45
-9.08
-7.56
-6.17
-5.21
-4.80
-4.89
-5.21
-5.39
-5.06
-4.09
-2.73
-1.49
-1.03
-1.83
-3.95
-6.93
-9.92
-11.76
-11.44
-8.30
-2.21
6.32
16.11
25.31
31.73
32.83
27.68
17.23
3.98
-8.94
-18.97
-24.89
-26.91
-26.03
-23.16
-18.60
-12.20
-4.00
5.28
14.24
21.27
25.24
26.13
24.92
23.11
21.91
21.71
22.11
22.21
21.23
18.79
15.02
10.52
5.73
1.20
-2.40
-4.28
-3.77
-0.58
4.58
10.09
13.94
14.55
11.43
5.30
-2.26
-9.46
-14.96
-18.20
-19.35
-18.96
-17.72
-16.17
-14.72
-13.62
-12.95
-12.63
-12.48
-12.27
-11.90
-11.18
-9.96
-8.19
-6.02
-3.72
-1.66
-0.18
0.59
0.80
0.67
0.67
1.19
2.44
4.45
6.99
9.65
11.80
12.84
12.17
9.43
4.86
-0.79
-6.29
-10.35
-12.05
-11.23
-8.43
-4.66
-0.80
2.94
6.64
10.50
14.38
17.64
19.22
18.21
14.19
7.69
0.03
-7.22
-12.65
-15.45
-15.55
-13.54
-10.14
-6.50
-3.46
-1.39
-0.32
0.14
0.36
0.58
0.79
0.78
0.30
-0.68
-1.85
-2.81
-3.20
-2.88
-1.97
-0.60
1.25
3.73
6.80
9.80
11.42
10.30
5.81
-1.19
-8.51
-13.59
-14.76
-12.12
-7.37
-2.88
-0.30
-0.10
-1.27
-2.44
-2.87
-2.70
-2.53
-2.88
-3.61
-4.14
-3.76
-2.12
0.56
3.56
6.10
7.66
8.15
7.93
7.46
7.18
7.29
7.77
8.49
9.38
10.50
11.90
13.71
15.97
18.46
20.78
22.41
22.97
22.35
20.77
18.65
16.54
14.78
13.48
12.51
11.62
10.58
9.33
7.97
6.68
5.58
4.66
3.74
2.69
1.45
0.12
-1.08
-1.98
-2.57
-3.03
-3.65
-4.70
-6.22
-8.07
-9.93
-11.46
-12.41
-12.68
-12.31
-11.36
-9.95
-8.14
-5.97
-3.51
-0.82
1.99
4.82
7.59
10.22
12.57
14.40
15.36
15.08
13.24
9.75
4.88
-0.80
-6.54
-11.62
-15.56
-18.19
-19.65
-20.20
-20.11
-19.60
-18.78
-17.77
-16.72
-15.78
-15.14
-14.88
-14.97
-15.25
-15.52
-15.61
-15.43
-15.03
-14.50
-13.96
-13.48
-13.02
-12.49
-11.82
-11.01
-10.14
-9.34
-8.74
-8.41
-8.36
-8.57
-8.99
-9.57
-10.21
-10.81
-11.28
-11.54
-11.59
-11.52
-11.41
-11.36
-11.40
-11.49
-11.58
-11.55
-11.29
-10.75
-9.99
-9.15
-8.39
-7.87
-7.65
-7.74
-8.09
-8.54
-8.85
-8.81
-8.21
-6.95
-5.09
-2.92
-0.90
0.55
1.24
1.16
0.48
-0.59
-1.81
-2.96
-3.87
-4.37
-4.22
-3.11
-0.75
2.93
7.78
13.39
19.19
24.60
28.92
31.43
32.10
31.80
31.60
32.00
32.87
33.80
34.49
34.80
34.62
33.75
31.88
28.81
24.79
20.58
16.95
14.40
12.82
11.75
10.78
9.82
8.79
7.68
6.43
4.84
2.80
0.48
-1.76
-3.48
-4.53
-5.08
-5.59
-6.48
-8.02
-10.10
-12.29
-14.06
-14.99
-14.89
-13.96
-12.65
-10.76
-8.61
-6.54
-4.76
-3.35
-2.28
-1.45
-0.77
-0.13
0.57
1.27
1.97
2.65
3.27
3.83
4.35
4.88
5.49
6.22
6.98
7.67
8.23
8.60
8.79
8.83
8.79
8.71
8.61
8.37
7.91
7.20
6.30
5.37
4.54
3.92
3.48
3.13
2.74
2.28
1.81
1.45
1.30
1.35
1.54
1.76
1.93
2.04
2.09
2.11
2.03
1.78
1.34
0.71
-0.01
-0.70
-1.29
-1.83
-2.45
-3.25
-4.28
-5.44
-6.55
-7.41
-7.92
-8.09
-8.04
-7.87
-7.67
-7.48
-7.30
-7.16
-7.03
-6.86
-6.53
-5.90
-4.87
-3.45
-1.81
-0.19
1.13
1.97
2.25
2.04
1.50
0.80
0.08
-0.56
-1.08
-1.49
-1.80
-2.07
-2.32
-2.59
-2.92
-3.32
-3.77
-4.24
-4.75
-5.33
-6.05
-6.96
-8.06
-9.31
-10.59
-11.81
-12.95
-14.05
-15.17
-16.35
-17.57
-18.75
-19.81
-20.68
-21.35
-21.79
-21.98
-21.85
-21.32
-20.36
-18.98
-17.19
-14.97
-12.29
-9.09
-5.39
-1.29
3.04
7.42
11.67
15.69
19.42
22.78
25.70
28.04
29.67
30.55
30.70
30.23
29.29
28.05
26.62
25.11
23.61
22.21
20.96
19.88
18.89
17.88
16.70
15.30
13.70
12.01
10.37
8.84
7.40
5.98
4.52
3.06
1.71
0.64
-0.04
-0.32
-0.30
-0.12
0.08
0.21
0.25
0.21
0.07
-0.16
-0.50
-0.92
-1.42
-2.04
-2.84
-3.91
-5.32
-7.04
-8.95
-10.80
-12.31
-13.27
-13.52
-13.04
-11.96
-10.48
-8.89
-7.49
-6.50
-6.04
-6.09
-6.51
-7.10
-7.65
-8.03
-8.16
-8.03
-7.65
-7.06
-6.33
-5.48
-4.61
-3.78
-3.02
-2.32
-1.63
-0.88
-0.03
0.87
1.71
2.36
2.74
2.84
2.72
2.46
2.09
1.57
0.75
-0.48
-2.18
-4.24
-6.41
-8.34
-9.62
-9.99
-9.49
-8.50
-7.62
-7.35
-7.92
-9.18
-10.69
-11.91
-12.45
-12.22
-11.46
-10.45
-9.36
-8.23
-7.02
-5.80
-4.62
-3.63
-2.94
-2.88
-3.51
-4.52
-5.43
-5.96
-6.11
-6.08
-6.17
-6.68
-8.33
-11.33
-15.12
-18.87
-22.03
-24.53
-26.62
-28.70
-31.20
-35.29
-41.23
-47.97
-53.84
-57.55
-58.64
-57.37
-54.49
-51.05
-49.28
-50.41
-53.91
-58.12
-61.22
-61.67
-57.95
-48.70
-26.22
9.63
50.69
86.26
109.87
120.12
118.48
107.94
92.20
74.98
58.18
43.36
31.99
24.89
21.14
19.16
17.38
14.68
10.66
4.88
-1.73
-6.96
-8.41
-3.64
6.43
19.16
31.52
41.07
45.80
45.10
39.80
31.64
22.58
14.18
7.83
4.39
3.91
5.25
6.94
7.80
7.43
6.19
4.82
4.31
5.27
7.57
10.05
11.11
9.58
5.31
-0.73
-7.02
-11.97
-14.54
-14.50
-12.63
-9.81
-7.11
-5.25
-4.70
-5.97
-9.49
-15.04
-20.39
-21.34
-13.73
3.53
27.02
50.11
65.84
69.87
62.16
46.62
29.75
14.31
1.17
-9.99
-19.69
-27.80
-33.33
-35.03
-32.33
-26.16
-17.47
-8.23
-0.12
6.25
11.25
15.78
20.52
25.49
29.93
32.58
32.41
29.20
23.62
16.92
10.42
5.06
1.15
-1.62
-3.90
-6.28
-8.97
-11.74
-14.17
-15.84
-16.56
-16.45
-15.83
-15.13
-14.72
-14.67
-14.79
-14.77
-14.28
-13.25
-11.89
-10.66
-10.08
-10.52
-12.01
-14.22
-16.67
-18.90
-20.69
-22.06
-23.26
-24.52
-26.01
-27.69
-29.37
-30.76
-31.65
-31.89
-31.35
-29.94
-27.51
-24.00
-19.54
-14.52
-9.45
-4.81
-0.82
2.69
6.13
9.89
14.07
18.36
22.11
24.61
25.28
23.86
20.44
15.40
9.28
2.72
-3.62
-9.17
-13.53
-16.54
-18.22
-18.76
-18.33
-17.11
-15.18
-12.60
-9.42
-5.74
-1.72
2.46
6.59
10.42
13.70
16.22
17.87
18.66
18.77
18.41
17.81
17.10
16.27
15.28
14.11
12.81
11.57
10.61
10.14
10.19
10.56
10.90
10.82
10.02
8.45
6.24
3.65
0.92
-1.78
-4.40
-6.85
-8.96
-10.48
-11.13
-10.74
-9.39
-7.30
-4.84
-2.37
-0.18
1.55
2.72
3.29
3.33
2.94
2.30
1.56
0.88
0.34
-0.02
-0.20
-0.23
-0.17
-0.15
-0.30
-0.76
-1.56
-2.65
-3.93
-5.30
-6.67
-8.06
-9.43
-10.74
-11.88
-12.75
-13.30
-13.52
-13.49
-13.27
-12.89
-12.33
-11.54
-10.47
-9.19
-7.84
-6.63
-5.77
-5.33
-5.22
-5.19
-4.94
-4.25
-3.05
-1.44
0.39
2.26
4.11
5.93
7.74
9.47
11.02
12.29
13.21
13.82
14.23
14.59
14.96
15.36
15.70
15.91
16.02
16.22
16.81
18.11
20.28
23.22
26.61
29.97
32.86
35.01
36.36
37.05
37.30
37.36
37.37
37.31
36.97
36.06
34.28
31.53
27.94
23.87
19.70
15.74
12.06
8.54
4.99
1.26
-2.77
-7.13
-11.87
-17.03
-22.56
-28.32
-34.01
-39.29
-43.85
-47.49
-50.21
-52.14
-53.45
-54.28
-54.65
-54.39
-53.19
-50.75
-46.84
-41.38
-34.51
-26.69
-18.58
-10.94
-4.38
0.73
4.24
6.21
6.84
6.39
5.11
3.19
0.76
-1.95
-4.75
-7.62
-10.60
-13.69
-16.78
-19.66
-22.14
-24.08
-25.06
-24.91
-23.87
-22.34
-20.51
-18.06
-14.30
-8.53
-0.46
10.19
22.57
34.61
43.85
48.69
49.10
46.35
42.25
38.31
36.56
37.86
41.57
46.26
50.87
55.26
59.78
64.72
70.07
77.15
86.61
97.69
108.64
117.90
124.80
129.22
131.28
121.19
95.08
57.88
20.31
-9.24
-28.20
-38.06
-41.94
-43.06
-43.88
-44.22
-43.41
-41.44
-38.86
-36.62
-34.82
-33.08
-31.00
-28.50
-24.72
-19.64
-14.54
-11.40
-11.71
-15.53
-21.93
-29.02
-34.86
-37.40
-36.00
-31.81
-27.18
-24.34
-24.46
-27.57
-32.87
-39.28
-45.53
-50.87
-55.13
-58.62
-61.60
-64.06
-65.75
-66.32
-65.42
-62.62
-57.62
-50.44
-41.40
-31.12
-20.30
-9.65
0.25
9.11
16.92
23.95
30.65
37.39
44.29
51.10
57.21
61.86
64.40
64.57
62.54
58.90
54.40
49.73
45.42
41.77
38.93
36.93
35.70
35.07
34.78
34.54
34.11
33.36
32.34
31.17
30.01
28.96
27.90
26.58
24.69
22.04
18.64
14.82
11.01
7.62
4.85
2.69
0.94
-0.58
-1.96
-3.16
-4.11
-4.79
-5.19
-5.34
-5.25
-4.84
-4.06
-2.96
-1.72
-0.65
-0.10
-0.27
-1.10
-2.35
-3.77
-5.23
-6.82
-8.80
-11.45
-15.00
-19.40
-24.32
-29.31
-34.06
-38.49
-42.81
-47.32
-52.23
-57.63
-63.25
-68.54
-72.91
-76.01
-77.80
-78.51
-78.40
-77.78
-77.22
-76.93
-76.64
-75.80
-73.98
-71.00
-66.92
-61.99
-56.64
-52.04
-48.80
-46.60
-44.64
-42.36
-39.72
-36.89
-34.07
-31.37
-29.89
-29.83
-30.18
-29.59
-27.54
-24.56
-21.72
-20.16
-20.72
-25.20
-33.83
-44.70
-54.90
-62.00
-64.52
-61.49
-52.33
-27.75
12.18
57.36
94.94
118.26
127.71
127.24
121.39
113.67
105.89
96.95
86.10
74.29
63.46
55.05
49.27
45.46
42.73
40.39
37.14
32.86
28.73
25.94
24.98
25.12
25.19
24.21
21.68
17.09
10.98
4.91
0.68
-0.78
0.25
2.67
5.13
6.53
6.10
3.93
0.91
-1.91
-3.87
-4.93
-5.36
-5.19
-4.59
-3.84
-3.11
-2.48
-1.97
-1.57
-1.33
-1.19
-1.02
-0.70
-0.09
0.77
1.72
2.49
2.82
2.60
1.91
0.99
0.05
-0.74
-1.37
-1.92
-2.49
-3.13
-3.79
-4.34
-4.67
-4.71
-4.42
-3.80
-2.94
-1.92
-0.87
0.07
0.74
1.02
0.82
0.34
-0.11
-0.25
0.07
0.89
2.07
3.37
4.54
5.35
5.78
5.76
5.09
3.66
1.63
-0.48
-1.90
-1.97
-0.37
2.92
7.36
12.00
15.89
18.42
19.45
19.26
18.31
15.93
12.31
8.53
5.87
4.87
5.05
5.46
5.23
3.88
1.59
-0.86
-2.66
-3.42
-3.28
-2.69
-2.13
-1.76
-1.87
-2.48
-3.27
-3.90
-4.20
-4.25
-4.06
-3.66
-3.01
-2.29
-1.64
-1.00
-0.13
1.32
3.64
7.03
11.73
17.85
23.91
27.97
28.48
25.07
18.73
10.99
4.48
0.36
-0.83
0.40
2.74
4.49
3.92
-0.23
-8.70
-20.68
-34.04
-46.06
-54.50
-58.05
-56.59
-50.99
-40.48
-27.47
-15.85
-8.40
-5.36
-5.55
-7.49
-10.00
-12.51
-14.35
-15.25
-14.83
-12.87
-9.60
-5.87
-2.74
-1.03
-1.04
-2.32
-4.29
-5.93
-6.22
-4.62
-1.41
2.50
5.97
8.07
8.44
7.25
5.45
4.42
5.31
8.52
13.44
18.77
22.98
24.94
24.17
21.15
17.09
13.35
10.95
10.25
10.96
12.38
13.66
14.10
13.35
11.47
8.73
5.51
2.13
-1.12
-4.04
-6.43
-8.18
-9.29
-9.87
-10.19
-10.53
-11.16
-12.18
-13.52
-14.90
-15.93
-16.26
-15.66
-14.19
-12.09
-9.79
-7.68
-5.99
-4.71
-3.61
-2.37
-0.70
1.44
3.83
6.04
7.67
8.56
8.92
9.29
10.30
12.30
15.16
18.26
20.77
21.95
21.50
19.62
16.93
14.21
12.12
11.05
11.03
11.75
12.79
13.72
14.30
14.50
14.41
14.08
13.49
12.54
11.17
9.53
7.95
6.88
6.72
7.66
9.68
12.56
15.87
19.01
21.12
21.24
18.58
12.86
4.71
-4.36
-12.22
-16.88
-17.21
-13.44
-7.15
-0.65
3.94
5.40
3.73
-0.12
-4.87
-9.42
-13.20
-16.11
-18.14
-19.26
-19.37
-18.53
-17.01
-15.29
-13.79
-12.66
-11.85
-10.96
-9.59
-7.63
-5.43
-3.59
-2.56
-2.32
-2.24
-1.35
1.67
7.96
17.84
30.30
43.16
53.50
58.42
56.03
46.03
30.53
13.45
-1.07
-10.43
-14.23
-14.08
-12.62
-12.29
-14.74
-19.89
-26.29
-32.12
-35.92
-36.53
-32.95
-24.69
-10.44
6.85
21.14
27.95
26.91
20.41
11.54
2.80
-4.35
-9.88
-14.18
-16.89
-17.26
-14.95
-10.65
-5.75
-1.82
-0.12
-0.66
-3.31
-7.23
-11.11
-13.89
-15.26
-15.50
-15.18
-14.90
-15.10
-16.17
-17.96
-19.88
-21.19
-21.24
-19.53
-15.83
-10.25
-3.33
3.96
10.73
16.42
20.84
24.09
26.39
27.86
28.48
28.07
26.44
23.63
19.93
15.77
11.47
7.17
2.82
-1.73
-6.51
-11.39
-16.05
-20.08
-23.12
-25.03
-25.87
-25.78
-24.99
-23.60
-21.67
-19.13
-15.92
-12.05
-7.69
-3.23
0.77
3.70
5.04
4.55
2.29
-1.30
-5.53
-9.54
-12.39
-13.30
-11.75
-7.67
-1.55
5.74
13.09
19.53
24.40
27.47
28.76
28.47
26.79
23.94
20.17
15.88
11.55
7.65
4.51
2.27
0.79
-0.19
-0.95
-1.68
-2.43
-3.18
-3.91
-4.64
-5.49
-6.55
-7.86
-9.30
-10.66
-11.69
-12.18
-12.01
-11.19
-9.82
-8.10
-6.22
-4.36
-2.64
-1.12
0.18
1.25
2.11
2.77
3.22
3.51
3.67
3.74
3.77
3.78
3.81
3.86
3.89
3.83
3.57
3.09
2.42
1.72
1.18
0.87
0.68
0.37
-0.31
-1.45
-2.95
-4.56
-5.97
-7.00
-7.58
-7.83
-7.90
-7.91
-7.94
-7.93
-7.85
-7.68
-7.47
-7.33
-7.49
-8.16
-9.41
-11.14
-13.08
-14.91
-16.32
-17.07
-17.18
-17.10
-17.38
-18.40
-20.24
-22.66
-25.16
-27.24
-28.39
-28.47
-28.07
-27.82
-28.10
-28.69
-28.72
-27.02
-22.53
-14.52
-3.00
10.34
23.44
34.25
41.49
45.01
45.66
45.01
44.78
46.33
48.86
51.08
51.10
47.28
38.86
26.22
8.56
-10.23
-20.91
-16.30
4.52
35.57
66.96
88.66
93.38
79.46
45.59
-3.01
-61.74
-118.75
-161.92
-184.79
-186.64
-169.14
-133.69
-86.68
-29.88
30.50
86.94
132.74
164.71
184.26
188.44
178.90
158.70
132.36
103.14
74.23
47.73
24.66
5.39
-10.09
-21.05
-27.60
-29.80
-29.19
-27.25
-25.47
-24.91
-25.95
-28.41
-31.17
-33.63
-35.16
-35.85
-35.60
-34.19
-31.30
-26.56
-19.72
-10.66
-0.25
9.97
17.94
22.06
21.62
16.98
9.30
0.09
-9.16
-17.77
-25.45
-31.86
-36.16
-37.33
-34.95
-29.66
-22.78
-16.04
-11.37
-10.20
-12.78
-18.11
-24.60
-30.84
-36.12
-39.80
-41.88
-43.34
-45.66
-49.75
-55.14
-60.37
-63.55
-63.01
-56.73
-43.36
-23.13
2.15
30.12
58.48
84.95
107.31
118.24
112.48
92.32
66.41
42.72
25.08
14.24
9.34
8.98
11.61
16.47
22.81
29.19
33.57
34.93
33.82
31.49
28.96
26.45
24.15
21.90
19.04
14.68
8.30
0.81
-6.35
-11.90
-15.21
-15.93
-14.21
-11.08
-8.81
-9.38
-13.94
-22.75
-35.13
-49.42
-63.13
-73.73
-76.05
-70.20
-58.85
-45.35
-32.58
-22.17
-14.44
-8.76
-4.30
-0.83
1.56
2.88
3.39
3.51
3.56
3.89
4.89
6.76
9.50
12.33
14.41
15.12
14.20
11.56
7.68
3.33
-0.86
-4.61
-7.95
-10.45
-11.08
-8.60
-2.50
6.44
15.93
23.02
25.37
22.18
14.56
4.85
-4.52
-11.94
-16.74
-19.08
-19.41
-18.18
-15.70
-12.27
-8.28
-4.23
-0.68
2.09
4.09
5.72
7.62
10.43
14.48
19.66
25.38
30.75
34.80
36.74
36.23
33.41
28.85
23.29
17.43
11.78
6.59
1.92
-2.28
-6.09
-9.58
-12.83
-15.83
-18.53
-20.79
-22.41
-23.29
-23.51
-23.38
-23.31
-23.54
-23.86
-23.57
-21.65
-17.20
-9.82
0.06
11.26
22.13
31.11
37.12
39.77
39.41
36.81
32.95
28.71
24.76
21.54
19.32
18.22
18.19
19.01
20.23
21.27
21.53
20.52
17.94
13.79
8.36
2.23
-3.79
-8.88
-12.46
-14.38
-15.00
-15.01
-15.08
-15.59
-16.57
-17.79
-19.09
-20.43
-21.81
-23.11
-23.86
-23.41
-21.24
-17.40
-12.66
-8.25
-5.39
-4.79
-6.37
-9.37
-12.76
-15.55
-17.11
-17.20
-15.89
-13.48
-10.32
-6.72
-2.93
0.97
4.93
8.90
12.80
16.36
19.16
20.68
20.35
17.67
12.24
3.92
-6.98
-19.39
-31.45
-40.79
-45.17
-43.18
-34.91
-22.02
-7.34
6.04
15.81
21.04
22.20
20.66
18.13
16.01
14.90
14.61
14.37
13.58
11.82
8.86
4.60
-0.60
-6.00
-10.76
-14.25
-16.44
-17.26
-16.95
-16.07
-15.33
-14.94
-14.56
-13.71
-12.28
-10.91
-9.65
-8.42
-6.92
-4.93
-1.93
2.89
9.99
19.27
29.84
41.81
55.60
71.60
85.63
91.86
87.44
74.78
62.16
50.51
39.33
28.04
15.75
2.66
-10.16
-20.76
-27.41
-29.74
-27.71
-22.30
-18.71
-19.11
-22.59
-27.57
-31.95
-34.26
-34.45
-34.02
-34.25
-35.82
-38.22
-40.69
-42.50
-42.94
-41.79
-39.55
-37.29
-35.72
-35.11
-34.95
-34.80
-34.42
-33.63
-32.50
-31.36
-30.67
-30.55
-30.72
-30.53
-29.65
-28.27
-26.76
-25.41
-24.08
-22.09
-18.49
-12.50
-4.00
6.22
16.71
26.03
33.29
38.22
40.98
41.83
40.97
38.69
35.39
31.68
28.23
25.50
23.57
22.10
20.58
18.63
16.23
13.75
11.78
10.86
11.27
12.98
15.68
18.92
22.19
25.01
27.05
28.08
28.09
27.27
25.96
24.54
23.35
22.56
22.15
21.95
21.67
20.98
19.62
17.47
14.51
10.92
6.96
2.93
-0.91
-4.31
-7.12
-9.31
-11.10
-12.87
-15.05
-17.76
-20.62
-22.77
-23.14
-21.02
-16.39
-10.13
-3.59
1.89
5.48
7.04
6.99
5.97
4.56
3.15
1.98
1.20
0.93
1.21
1.97
3.08
4.31
5.37
6.06
6.28
6.00
5.32
4.37
3.31
2.28
1.34
0.51
-0.29
-1.12
-2.04
-3.03
-3.97
-4.73
-5.24
-5.54
-5.75
-6.00
-6.32
-6.62
-6.72
-6.46
-5.79
-4.82
-3.73
-2.66
-1.64
-0.64
0.40
1.49
2.54
3.42
4.02
4.26
4.15
3.73
3.02
2.05
0.89
-0.37
-1.56
-2.48
-2.98
-3.01
-2.62
-2.00
-1.31
-0.71
-0.22
0.17
0.48
0.68
0.68
0.40
-0.19
-0.98
-1.82
-2.53
-3.02
-3.26
-3.28
-3.12
-2.80
-2.31
-1.70
-1.04
-0.40
0.15
0.62
1.01
1.34
1.61
1.83
1.98
2.08
2.14
2.16
2.12
1.99
1.74
1.40
0.99
0.53
0.04
-0.53
-1.16
-1.80
-2.37
-2.78
-3.01
-3.10
-3.13
-3.13
-3.13
-3.07
-2.94
-2.75
-2.52
-2.31
-2.07
-1.77
-1.30
-0.66
0.10
0.84
1.41
1.73
1.79
1.67
1.48
1.27
1.06
0.81
0.49
0.08
-0.32
-0.62
-0.71
-0.59
-0.30
0.02
0.21
0.16
-0.17
-0.74
-1.45
-2.18
-2.78
-3.19
-3.36
-3.31
-3.08
-2.70
-2.19
-1.56
-0.85
-0.15
0.46
0.91
1.18
1.30
1.33
1.31
1.26
1.15
1.01
0.91
0.93
1.13
1.50
1.92
2.22
2.27
2.05
1.61
1.12
0.71
0.46
0.37
0.38
0.37
0.26
-0.07
-0.67
-1.48
-2.37
-3.15
-3.64
-3.77
-3.60
-3.27
-2.86
-2.40
-1.80
-1.01
-0.04
0.94
1.72
2.13
2.15
1.89
1.51
1.16
0.87
0.65
0.49
0.43
0.48
0.62
0.75
0.73
0.49
0.04
-0.54
-1.11
-1.62
-2.03
-2.41
-2.77
-3.13
-3.49
-3.80
-4.04
-4.12
-3.99
-3.55
-2.82
-1.86
-0.84
0.11
0.94
1.63
2.26
2.82
3.29
3.58
3.64
3.48
3.21
2.97
2.88
2.96
3.13
3.27
3.25
3.01
2.58
2.01
1.38
0.77
0.18
-0.44
-1.10
-1.83
-2.54
-3.14
-3.52
-3.61
-3.40
-2.96
-2.38
-1.74
-1.11
-0.52
0.01
0.48
0.87
1.18
1.44
1.66
1.88
2.11
2.31
2.44
2.47
2.40
2.29
2.21
2.20
2.24
2.25
2.14
1.84
1.38
0.81
0.24
-0.30
-0.77
-1.20
-1.62
-2.00
-2.29
-2.40
-2.26
-1.86
-1.27
-0.63
-0.09
0.26
0.41
0.47
0.60
0.93
1.50
2.20
2.87
3.31
3.45
3.31
3.02
2.70
2.45
2.23
2.01
1.73
1.41
1.10
0.86
0.68
0.46
0.04
-0.68
-1.68
-2.83
-3.92
-4.80
-5.41
-5.80
-6.07
-6.28
-6.43
-6.44
-6.27
-5.88
-5.31
-4.63
-3.94
-3.32
-2.85
-2.55
-2.37
-2.21
-1.96
-1.55
-1.04
-0.53
-0.17
0.00
0.05
0.10
0.28
0.59
0.95
1.22
1.32
1.30
1.26
1.33
1.56
1.89
2.19
2.32
2.18
1.77
1.18
0.59
0.22
0.22
0.65
1.41
2.29
3.04
3.49
3.65
3.66
3.68
3.84
4.12
4.41
4.58
4.54
4.33
4.04
3.75
3.46
3.13
2.70
2.15
1.57
1.08
0.75
0.55
0.30
-0.18
-0.98
-2.03
-3.11
-4.00
-4.59
-4.96
-5.26
-5.61
-6.04
-6.42
-6.59
-6.46
-6.05
-5.48
-4.83
-4.13
-3.34
-2.42
-1.39
-0.34
0.60
1.35
1.86
2.20
2.45
2.70
3.02
3.38
3.73
3.96
3.98
3.80
3.43
2.97
2.47
1.95
1.38
0.74
0.09
-0.48
-0.84
-0.94
-0.84
-0.66
-0.57
-0.71
-1.10
-1.68
-2.32
-2.86
-3.21
-3.28
-3.08
-2.65
-2.08
-1.45
-0.84
-0.32
0.07
0.34
0.50
0.61
0.72
0.88
1.07
1.31
1.58
1.89
2.21
2.49
2.64
2.60
2.33
1.91
1.42
0.96
0.56
0.19
-0.16
-0.52
-0.89
-1.27
-1.68
-2.13
-2.63
-3.13
-3.52
-3.69
-3.59
-3.24
-2.73
-2.18
-1.69
-1.27
-0.92
-0.60
-0.31
-0.01
0.29
0.61
0.93
1.24
1.45
1.52
1.40
1.12
0.79
0.51
0.36
0.34
0.42
0.55
0.69
0.85
1.03
1.14
1.10
0.82
0.27
-0.47
-1.24
-1.94
-2.47
-2.86
-3.19
-3.52
-3.85
-4.13
-4.28
-4.19
-3.81
-3.16
-2.33
-1.44
-0.62
0.11
0.75
1.37
1.98
2.55
2.95
3.07
2.88
2.45
1.92
1.49
1.29
1.36
1.63
1.95
2.15
2.10
1.78
1.24
0.59
-0.05
-0.56
-0.93
-1.18
-1.40
-1.67
-2.03
-2.50
-3.05
-3.61
-4.05
-4.28
-4.19
-3.80
-3.18
-2.44
-1.70
-1.04
-0.52
-0.13
0.16
0.41
0.72
1.16
1.74
2.38
2.91
3.16
3.02
2.50
1.79
1.13
0.72
0.65
0.85
1.14
1.35
1.35
1.16
0.87
0.60
0.41
0.26
0.06
-0.30
-0.85
-1.55
-2.27
-2.91
-3.38
-3.66
-3.74
-3.62
-3.30
-2.81
-2.24
-1.70
-1.27
-0.99
-0.80
-0.64
-0.43
-0.14
0.25
0.71
1.23
1.75
2.19
2.52
2.68
2.69
2.58
2.39
2.14
1.87
1.62
1.41
1.28
1.21
1.16
1.07
0.89
0.64
0.36
0.10
-0.13
-0.42
-0.85
-1.44
-2.14
-2.80
-3.25
-3.36
-3.10
-2.52
-1.74
-0.92
-0.20
0.34
0.69
0.87
0.96
1.03
1.14
1.31
1.47
1.55
1.47
1.24
0.95
0.73
0.69
0.84
1.08
1.23
1.12
0.69
0.01
-0.76
-1.45
-1.92
-2.16
-2.18
-2.09
-1.96
-1.88
-1.92
-2.10
-2.42
-2.80
-3.14
-3.33
-3.26
-2.90
-2.26
-1.44
-0.54
0.28
0.95
1.38
1.56
1.54
1.40
1.24
1.17
1.25
1.48
1.79
2.12
2.38
2.57
2.68
2.73
2.71
2.57
2.27
1.79
1.15
0.41
-0.35
-1.09
-1.76
-2.34
-2.80
-3.11
-3.30
-3.42
-3.52
-3.67
-3.86
-4.04
-4.17
-4.17
-4.00
-3.63
-3.05
-2.27
-1.35
-0.38
0.50
1.18
1.58
1.70
1.60
1.39
1.17
1.02
0.99
1.08
1.28
1.53
1.77
1.91
1.90
1.73
1.48
1.19
0.93
0.65
0.29
-0.22
-0.91
-1.71
-2.54
-3.28
-3.93
-4.46
-4.90
-5.22
-5.32
-5.08
-4.43
-3.42
-2.20
-1.00
-0.01
0.69
1.13
1.44
1.74
2.14
2.65
3.18
3.65
3.99
4.16
4.16
4.02
3.75
3.37
2.98
2.62
2.37
2.26
2.21
2.15
1.99
1.69
1.27
0.77
0.22
-0.40
-1.12
-1.93
-2.73
-3.35
-3.61
-3.41
-2.81
-2.00
-1.19
-0.52
0.02
0.53
1.16
1.92
2.72
3.32
3.54
3.30
2.72
2.04
1.53
1.36
1.49
1.75
1.93
1.84
1.45
0.86
0.23
-0.26
-0.55
-0.65
-0.64
-0.63
-0.71
-0.91
-1.25
-1.70
-2.20
-2.67
-3.05
-3.30
-3.38
-3.28
-2.99
-2.52
-1.90
-1.20
-0.50
0.13
0.67
1.14
1.59
2.04
2.48
2.85
3.10
3.24
3.29
3.28
3.24
3.15
2.98
2.71
2.35
1.95
1.59
1.32
1.18
1.15
1.18
1.18
1.00
0.55
-0.24
-1.34
-2.59
-3.78
-4.70
-5.22
-5.33
-5.14
-4.80
-4.45
-4.09
-3.64
-3.04
-2.26
-1.40
-0.62
-0.03
0.41
0.84
1.41
2.23
3.19
4.08
4.68
4.85
4.62
4.11
3.50
2.92
2.44
2.09
1.90
1.92
2.16
2.55
2.92
3.06
2.76
1.97
0.80
-0.51
-1.70
-2.60
-3.16
-3.48
-3.67
-3.80
-3.84
-3.72
-3.37
-2.82
-2.17
-1.55
-1.04
-0.65
-0.33
-0.01
0.34
0.72
1.11
1.52
1.92
2.27
2.51
2.58
2.44
2.14
1.77
1.45
1.24
1.17
1.19
1.25
1.31
1.40
1.52
1.68
1.79
1.75
1.44
0.84
0.03
-0.79
-1.46
-1.83
-1.93
-1.90
-1.86
-1.89
-1.93
-1.90
-1.72
-1.39
-0.98
-0.54
-0.08
0.42
1.01
1.68
2.39
3.06
3.59
3.94
4.06
3.96
3.71
3.40
3.13
2.97
2.92
2.89
2.79
2.56
2.22
1.87
1.58
1.38
1.21
0.98
0.59
0.02
-0.69
-1.45
-2.18
-2.81
-3.29
-3.57
-3.61
-3.38
-2.86
-2.10
-1.22
-0.36
0.36
0.87
1.21
1.44
1.67
1.93
2.22
2.48
2.68
2.78
2.81
2.80
2.78
2.76
2.71
2.59
2.40
2.14
1.83
1.48
1.14
0.80
0.48
0.16
-0.17
-0.52
-0.90
-1.32
-1.79
-2.29
-2.77
-3.17
-3.44
-3.57
-3.59
-3.53
-3.40
-3.14
-2.75
-2.20
-1.58
-0.96
-0.40
0.09
0.59
1.13
1.70
2.22
