1636415349.00
64.000000
-0.00
-0.00
-0.00
-0.00
-0.00
-0.00
-0.00
-0.00
-0.00
-0.00
0.00
0.01
0.01
-0.00
-0.03
-0.05
-0.05
0.00
0.13
0.36
0.66
1.01
1.37
1.72
2.06
2.40
2.79
3.24
3.80
4.42
5.06
5.66
6.20
6.68
7.15
7.68
8.31
9.14
10.09
11.04
11.88
12.56
13.14
13.76
14.65
15.96
17.91
20.32
22.90
25.38
27.58
29.57
31.68
34.32
37.81
42.54
48.15
54.11
59.84
64.97
69.58
74.14
79.34
85.71
93.78
103.04
112.67
121.76
129.73
136.61
143.02
150.31
157.23
166.03
177.32
191.17
206.34
219.89
227.48
224.47
207.51
175.76
131.63
78.95
22.01
-36.02
-93.64
-150.61
-207.02
-262.49
-316.08
-366.26
-412.15
-453.13
-488.80
-518.40
-540.60
-553.51
-555.17
-544.23
-520.33
-484.71
-439.75
-388.44
-333.71
-277.91
-222.53
-168.39
-116.06
-66.09
-19.56
22.22
57.97
86.90
109.00
125.10
136.57
144.80
150.84
155.04
157.24
157.02
154.03
148.06
139.18
127.78
114.94
102.62
93.46
90.16
94.21
105.08
120.01
134.97
146.17
151.43
150.66
145.27
137.16
127.73
117.60
106.92
95.89
85.07
75.21
67.05
60.60
55.35
50.53
45.45
39.82
33.79
27.88
22.71
18.75
16.07
14.36
13.04
11.56
9.63
7.29
4.92
2.90
1.48
0.65
0.17
-0.25
-0.85
-1.65
-2.56
-3.40
-4.05
-4.45
-4.70
-4.93
-5.21
-5.46
-5.45
-4.94
-3.84
-2.40
-1.05
-0.31
-0.44
-1.34
-2.63
-3.81
-4.57
-4.81
-4.66
-4.33
-3.95
-3.56
-3.14
-2.72
-2.37
-2.21
-2.31
-2.65
-3.12
-3.50
-3.60
-3.34
-2.78
-2.12
-1.62
-1.45
-1.62
-1.98
-2.29
-2.40
-2.23
-1.86
-1.35
-0.80
-0.24
0.30
0.81
1.29
1.76
2.29
2.92
3.64
4.42
5.20
5.91
6.58
7.25
7.98
8.76
9.50
10.06
10.29
10.09
9.47
8.50
7.26
5.80
4.21
2.43
0.46
-1.62
-3.67
-5.57
-7.20
-8.50
-9.52
-10.28
-10.80
-11.06
-11.04
-10.73
-10.22
-9.60
-8.97
-8.38
-7.84
-7.32
-6.79
-6.25
-5.72
-5.23
-4.82
-4.50
-4.24
-4.04
-3.88
-3.69
-3.43
-3.09
-2.66
-2.21
-1.83
-1.56
-1.37
-1.17
-0.90
-0.53
-0.12
0.17
0.25
0.09
-0.22
-0.53
-0.72
-0.73
-0.59
-0.36
-0.09
0.20
0.49
0.72
0.81
0.68
0.30
-0.23
-0.75
-1.11
-1.22
-1.09
-0.80
-0.44
-0.06
0.35
0.78
1.22
1.61
1.89
2.02
2.02
1.97
1.94
1.96
2.00
2.00
1.91
1.72
1.45
1.19
1.00
0.91
0.89
0.87
0.79
0.62
0.42
0.23
0.12
0.10
0.13
0.17
0.17
0.12
0.05
0.04
0.12
0.27
0.43
0.48
0.39
0.18
-0.00
-0.01
0.27
0.78
1.36
1.77
1.80
1.42
0.72
-0.09
-0.81
-1.34
-1.62
-1.73
-1.73
-1.69
-1.65
-1.66
-1.75
-1.93
-2.16
-2.37
-2.45
-2.31
-1.89
-1.21
-0.39
0.41
1.04
1.37
1.43
1.27
1.05
0.88
0.82
0.87
1.00
1.15
1.31
1.46
1.57
1.62
1.56
1.39
1.16
0.95
0.84
0.91
1.12
1.39
1.60
1.62
1.44
1.11
0.81
0.70
0.88
1.28
1.69
1.86
1.59
0.90
-0.01
-0.84
-1.30
-1.32
-0.97
-0.51
-0.18
-0.13
-0.36
-0.75
-1.13
-1.37
-1.47
-1.48
-1.45
-1.40
-1.29
-1.08
-0.80
-0.55
-0.44
-0.56
-0.86
-1.23
-1.50
-1.60
-1.57
-1.56
-1.70
-2.02
-2.43
-2.72
-2.70
-2.33
-1.68
-0.95
-0.37
-0.04
0.04
0.01
0.04
0.22
0.52
0.84
1.05
1.08
0.96
0.77
0.58
0.48
0.47
0.53
0.60
0.64
0.60
0.49
0.32
0.16
0.06
0.05
0.09
0.12
0.10
0.01
-0.09
-0.13
-0.05
0.13
0.34
0.48
0.48
0.30
-0.02
-0.39
-0.71
-0.88
-0.88
-0.71
-0.43
-0.12
0.19
0.47
0.71
0.84
0.80
0.51
-0.02
-0.67
-1.26
-1.63
-1.68
-1.46
-1.13
-0.88
-0.80
-0.90
-1.08
-1.19
-1.16
-0.99
-0.78
-0.65
-0.66
-0.75
-0.79
-0.65
-0.28
0.24
0.70
0.93
0.87
0.62
0.38
0.33
0.50
0.74
0.82
0.57
0.01
-0.66
-1.13
-1.19
-0.81
-0.16
0.48
0.86
0.88
0.65
0.37
0.20
0.24
0.41
0.57
0.61
0.48
0.23
-0.05
-0.27
-0.42
-0.55
-0.69
-0.87
-1.07
-1.24
-1.33
-1.33
-1.24
-1.09
-0.95
-0.87
-0.90
-1.08
-1.34
-1.60
-1.72
-1.63
-1.36
-1.02
-0.77
-0.70
-0.83
-1.04
-1.20
-1.22
-1.09
-0.86
-0.59
-0.30
0.01
0.34
0.66
0.90
0.99
0.91
0.73
0.52
0.40
0.40
0.51
0.64
0.69
0.60
0.38
0.08
-0.17
-0.25
-0.10
0.25
0.67
0.98
1.07
0.87
0.48
0.03
-0.30
-0.44
-0.38
-0.17
0.09
0.28
0.33
0.21
-0.08
-0.43
-0.76
-0.95
-0.96
-0.80
-0.54
-0.25
0.05
0.33
0.60
0.77
0.77
0.49
-0.04
-0.69
-1.23
-1.46
-1.32
-0.88
-0.36
0.03
0.20
0.15
0.00
-0.15
-0.25
-0.29
-0.33
-0.38
-0.42
-0.38
-0.24
0.03
0.36
0.68
0.92
1.03
1.00
0.84
0.61
0.37
0.16
0.03
-0.01
0.00
0.05
0.10
0.14
0.18
0.23
0.27
0.30
0.31
0.30
0.30
0.35
0.44
0.54
0.61
0.61
0.50
0.29
0.01
-0.32
-0.62
-0.85
-0.98
-1.00
-0.93
-0.84
-0.80
-0.87
-1.09
-1.40
-1.70
-1.87
-1.87
-1.71
-1.46
-1.21
-1.00
-0.79
-0.56
-0.28
-0.00
0.18
0.22
0.12
-0.02
-0.13
-0.17
-0.19
-0.28
-0.47
-0.72
-0.96
-1.09
-1.09
-1.04
-1.04
-1.19
-1.51
-1.91
-2.28
-2.48
-2.47
-2.32
-2.17
-2.20
-2.51
-3.07
-3.76
-4.43
-5.00
-5.52
-6.09
-6.77
-7.54
-8.28
-8.87
-9.26
-9.50
-9.68
-9.88
-10.09
-10.19
-10.04
-9.51
-8.52
-7.01
-4.99
-2.52
0.24
2.97
5.37
7.18
8.30
8.87
9.11
9.26
9.43
9.57
9.59
9.43
9.08
8.64
8.24
7.92
7.68
7.46
7.23
6.97
6.71
6.47
6.23
5.96
5.57
5.04
4.39
3.73
3.19
2.89
2.83
2.94
3.07
3.10
2.96
2.68
2.34
2.02
1.75
1.52
1.31
1.09
0.92
0.86
0.94
1.15
1.41
1.59
1.59
1.36
0.94
0.41
-0.10
-0.46
-0.61
-0.55
-0.33
-0.04
0.19
0.26
0.15
-0.09
-0.35
-0.52
-0.55
-0.48
-0.41
-0.42
-0.52
-0.59
-0.50
-0.20
0.23
0.54
0.52
0.07
-0.69
-1.51
-2.11
-2.34
-2.22
-1.89
-1.50
-1.12
-0.72
-0.31
0.10
0.38
0.43
0.24
-0.11
-0.38
-0.40
-0.11
0.38
0.84
1.06
0.94
0.54
0.05
-0.38
-0.60
-0.59
-0.39
-0.07
0.32
0.70
1.03
1.24
1.31
1.21
1.00
0.72
0.39
0.04
-0.32
-0.63
-0.83
-0.84
-0.60
-0.18
0.31
0.70
0.86
0.73
0.36
-0.14
-0.67
-1.11
-1.40
-1.54
-1.54
-1.46
-1.33
-1.22
-1.15
-1.14
-1.17
-1.25
-1.38
-1.54
-1.65
-1.64
-1.40
-0.91
-0.24
0.44
0.90
1.01
0.74
0.22
-0.33
-0.70
-0.78
-0.57
-0.20
0.19
0.45
0.56
0.55
0.50
0.49
0.53
0.59
0.61
0.56
0.48
0.43
0.46
0.56
0.66
0.67
0.56
0.34
0.10
-0.08
-0.15
-0.15
-0.11
-0.09
-0.12
-0.20
-0.33
-0.50
-0.67
-0.75
-0.67
-0.39
0.05
0.52
0.89
1.05
1.00
0.81
0.55
0.27
-0.04
-0.38
-0.71
-0.92
-0.95
-0.79
-0.57
-0.49
-0.70
-1.22
-1.86
-2.35
-2.46
-2.13
-1.49
-0.76
-0.17
0.17
0.26
0.19
0.07
0.01
0.04
0.18
0.36
0.55
0.71
0.89
1.09
1.29
1.41
1.36
1.08
0.65
0.23
0.01
0.11
0.49
0.98
1.35
1.46
1.31
1.00
0.70
0.55
0.57
0.73
0.94
1.09
1.12
1.02
0.80
0.53
0.28
0.10
0.03
0.06
0.15
0.21
0.17
-0.00
-0.29
-0.62
-0.90
-1.10
-1.23
-1.34
-1.47
-1.59
-1.66
-1.67
-1.64
-1.67
-1.83
-2.12
-2.42
-2.58
-2.47
-2.06
-1.46
-0.85
-0.38
-0.08
0.11
0.28
0.47
0.60
0.57
0.31
-0.10
-0.48
-0.59
-0.33
0.21
0.81
1.23
1.36
1.27
1.14
1.11
1.24
1.45
1.61
1.63
1.51
1.30
1.09
0.93
0.80
0.71
0.64
0.58
0.54
0.53
0.51
0.49
0.46
0.40
0.35
0.32
0.32
0.34
0.38
0.42
0.44
0.40
0.27
0.01
-0.36
-0.78
-1.11
-1.26
-1.16
-0.87
-0.57
-0.44
-0.59
-1.01
-1.54
-1.97
-2.16
-2.11
-1.89
-1.64
-1.45
-1.30
-1.13
-0.83
-0.36
0.23
0.82
1.29
1.57
1.65
1.60
1.49
1.38
1.29
1.19
1.04
0.86
0.66
0.52
0.49
0.60
0.79
0.98
1.07
0.99
0.73
0.34
-0.08
-0.39
-0.53
-0.47
-0.24
0.05
0.30
0.45
0.50
0.48
0.45
0.43
0.43
0.39
0.28
0.11
-0.10
-0.30
-0.42
-0.45
-0.42
-0.38
-0.43
-0.61
-0.92
-1.28
-1.60
-1.75
-1.69
-1.44
-1.09
-0.74
-0.46
-0.26
-0.15
-0.09
-0.11
-0.22
-0.40
-0.61
-0.76
-0.79
-0.67
-0.44
-0.17
0.05
0.17
0.19
0.14
0.08
0.03
-0.00
-0.04
-0.13
-0.26
-0.41
-0.47
-0.37
-0.05
0.43
0.95
1.40
1.68
1.79
1.71
1.49
1.11
0.62
0.07
-0.42
-0.76
-0.85
-0.70
-0.38
-0.01
0.29
0.44
0.41
0.17
-0.23
-0.74
-1.24
-1.62
-1.79
-1.73
-1.50
-1.20
-0.93
-0.75
-0.67
-0.66
-0.69
-0.71
-0.68
-0.54
-0.26
0.14
0.59
0.99
1.28
1.40
1.37
1.25
1.09
0.90
0.69
0.46
0.20
-0.07
-0.32
-0.52
-0.65
-0.69
-0.62
-0.45
-0.20
0.06
0.24
0.26
0.09
-0.21
-0.58
-0.95
-1.29
-1.59
-1.85
-2.09
-2.28
-2.40
-2.44
-2.39
-2.22
-1.94
-1.53
-1.01
-0.46
0.03
0.39
0.61
0.74
0.87
1.04
1.23
1.40
1.47
1.44
1.32
1.18
1.05
0.92
0.76
0.60
0.50
0.54
0.80
1.22
1.67
1.98
2.02
1.79
1.36
0.88
0.44
0.12
-0.10
-0.23
-0.33
-0.38
-0.39
-0.37
-0.34
-0.36
-0.45
-0.64
-0.88
-1.11
-1.28
-1.36
-1.37
-1.34
-1.36
-1.48
-1.74
-2.13
-2.58
-2.99
-3.19
-3.10
-2.68
-1.99
-1.20
-0.47
0.07
0.42
0.63
0.84
1.13
1.52
1.95
2.27
2.38
2.26
1.99
1.71
1.56
1.58
1.71
1.84
1.85
1.74
1.55
1.37
1.28
1.25
1.26
1.28
1.32
1.40
1.53
1.67
1.75
1.70
1.48
1.15
0.77
0.45
0.26
0.20
0.26
0.39
0.60
0.85
1.13
1.38
1.50
1.44
1.17
0.75
0.30
-0.03
-0.16
-0.06
0.14
0.30
0.28
0.03
-0.40
-0.91
-1.36
-1.69
-1.86
-1.91
-1.89
-1.86
-1.84
-1.83
-1.83
-1.83
-1.82
-1.82
-1.86
-1.93
-2.00
-2.01
-1.87
-1.53
-1.04
-0.48
0.02
0.34
0.45
0.42
0.37
0.43
0.65
0.96
1.26
1.40
1.33
1.09
0.78
0.56
0.48
0.58
0.77
0.99
1.16
1.29
1.37
1.39
1.33
1.18
1.00
0.88
0.93
1.19
1.56
1.89
1.98
1.74
1.23
0.66
0.25
0.16
0.37
0.76
1.10
1.23
1.07
0.69
0.23
-0.14
-0.31
-0.26
-0.06
0.16
0.30
0.33
0.25
0.12
-0.01
-0.13
-0.26
-0.41
-0.61
-0.83
-1.07
-1.29
-1.48
-1.63
-1.76
-1.91
-2.13
-2.42
-2.71
-2.88
-2.81
-2.42
-1.78
-1.06
-0.44
-0.04
0.14
0.20
0.27
0.40
0.60
0.82
1.02
1.20
1.39
1.58
1.67
1.60
1.32
0.90
0.45
0.13
0.04
0.19
0.49
0.80
0.99
0.97
0.77
0.47
0.19
0.02
-0.04
-0.04
-0.03
-0.03
0.01
0.16
0.42
0.72
0.89
0.78
0.39
-0.15
-0.60
-0.74
-0.48
0.07
0.65
1.02
1.03
0.74
0.35
0.05
-0.05
-0.02
-0.00
-0.14
-0.48
-0.91
-1.29
-1.49
-1.51
-1.43
-1.39
-1.44
-1.57
-1.66
-1.59
-1.28
-0.77
-0.19
0.27
0.46
0.32
-0.04
-0.44
-0.70
-0.72
-0.53
-0.28
-0.10
-0.07
-0.18
-0.37
-0.56
-0.67
-0.68
-0.61
-0.48
-0.34
-0.18
0.00
0.24
0.53
0.84
1.06
1.12
0.98
0.70
0.42
0.24
0.23
0.34
0.42
0.40
0.24
0.03
-0.10
-0.07
0.12
0.37
0.54
0.53
0.33
0.02
-0.29
-0.50
-0.60
-0.63
-0.67
-0.76
-0.87
-0.94
-0.92
-0.82
-0.67
-0.52
-0.42
-0.38
-0.37
-0.37
-0.39
-0.44
-0.54
-0.67
-0.77
-0.78
-0.64
-0.39
-0.10
0.17
0.34
0.39
0.32
0.16
-0.05
-0.25
-0.39
-0.44
-0.39
-0.23
0.02
0.31
0.57
0.77
0.88
0.91
0.90
0.87
0.86
0.84
0.81
0.74
0.65
0.56
0.51
0.54
0.65
0.79
0.88
0.86
0.70
0.43
0.13
-0.13
-0.32
-0.47
-0.62
-0.84
-1.16
-1.55
-1.95
-2.28
-2.50
-2.62
-2.67
-2.66
-2.58
-2.37
-1.95
-1.32
-0.59
0.10
0.57
0.76
0.73
0.60
0.50
0.47
0.44
0.34
0.16
-0.06
-0.20
-0.18
-0.03
0.23
0.53
0.88
1.27
1.67
2.00
2.13
2.03
1.75
1.43
1.18
1.01
0.82
0.49
-0.01
-0.58
-1.01
-1.18
-1.07
-0.80
-0.55
-0.41
-0.38
-0.38
-0.39
-0.39
-0.44
-0.56
-0.69
-0.72
-0.56
-0.24
0.10
0.25
0.05
-0.48
-1.17
-1.73
-1.96
-1.79
-1.31
-0.70
-0.16
0.22
0.42
0.50
0.53
0.57
0.59
0.57
0.47
0.28
0.06
-0.11
-0.13
0.04
0.35
0.67
0.86
0.83
0.65
0.45
0.43
0.65
1.08
1.54
1.83
1.84
1.56
1.14
0.74
0.49
0.42
0.45
0.48
0.40
0.18
-0.14
-0.50
-0.79
-0.98
-1.06
-1.08
-1.10
-1.18
-1.33
-1.50
-1.65
-1.69
-1.60
-1.38
-1.07
-0.72
-0.38
-0.12
-0.02
-0.13
-0.42
-0.79
-1.10
-1.20
-1.04
-0.66
-0.20
0.17
0.35
0.33
0.19
0.01
-0.13
-0.20
-0.24
-0.28
-0.32
-0.33
-0.25
-0.05
0.27
0.65
0.99
1.22
1.26
1.13
0.88
0.60
0.39
0.34
0.47
0.77
1.17
1.58
1.91
2.09
2.09
1.90
1.54
1.04
0.46
-0.11
-0.56
-0.83
-0.87
-0.74
-0.53
-0.32
-0.16
-0.07
-0.02
-0.04
-0.16
-0.40
-0.78
-1.20
-1.56
-1.76
-1.78
-1.70
-1.62
-1.63
-1.72
-1.83
-1.83
-1.67
-1.37
-1.02
-0.70
-0.47
-0.28
-0.08
0.16
0.44
0.67
0.73
0.63
0.40
0.20
0.15
0.32
0.65
1.01
1.25
1.32
1.24
1.11
1.04
1.05
1.10
1.10
0.98
0.77
0.52
0.30
0.15
0.05
-0.04
-0.14
-0.24
-0.29
-0.25
-0.15
-0.03
0.03
-0.02
-0.18
-0.38
-0.59
-0.78
-0.97
-1.17
-1.37
-1.54
-1.68
-1.79
-1.89
-2.00
-2.07
-2.04
-1.85
-1.46
-0.91
-0.29
0.29
0.78
1.13
1.37
1.54
1.67
1.74
1.72
1.60
1.36
1.04
0.72
0.46
0.35
0.37
0.51
0.68
0.82
0.89
0.92
0.95
1.02
1.12
1.22
1.24
1.15
0.96
0.72
0.50
0.37
0.34
0.40
0.52
0.64
0.71
0.65
0.42
-0.01
-0.61
-1.28
-1.88
-2.31
-2.49
-2.42
-2.17
-1.86
-1.60
-1.49
-1.56
-1.80
-2.11
-2.38
-2.49
-2.38
-2.01
-1.41
-0.65
0.14
0.84
1.34
1.63
1.75
1.81
1.94
2.22
2.67
3.20
3.74
4.20
4.59
4.95
5.33
5.77
6.27
6.78
7.25
7.62
7.84
7.93
7.94
7.95
7.98
8.00
7.89
7.51
6.77
5.69
4.45
3.28
2.40
1.93
1.85
2.02
2.25
2.35
2.21
1.82
1.25
0.63
0.09
-0.28
-0.47
-0.54
-0.62
-0.81
-1.14
-1.57
-2.01
-2.34
-2.47
-2.37
-2.05
-1.54
-0.93
-0.31
0.24
0.69
1.05
1.38
1.75
2.13
2.44
2.52
2.30
1.80
1.18
0.63
0.29
0.17
0.12
-0.02
-0.36
-0.93
-1.72
-2.67
-3.78
-5.04
-6.38
-7.67
-8.71
-9.35
-9.54
-9.37
-9.00
-8.51
-7.82
-6.76
-5.11
-2.75
0.20
3.43
6.51
9.06
10.89
12.01
12.65
13.07
13.46
13.86
14.15
14.15
13.73
12.87
11.73
10.52
9.41
8.36
7.10
5.19
2.24
-1.91
-7.12
-12.92
-18.69
-23.72
-27.34
-28.90
-27.98
-24.50
-19.02
-12.70
-7.08
-3.50
-2.65
-4.24
-7.21
-10.24
-12.30
-13.00
-12.54
-11.37
-9.89
-8.30
-6.65
-5.01
-3.62
-2.76
-2.61
-3.08
-3.77
-4.18
-3.95
-3.02
-1.73
-0.58
-0.00
-0.13
-0.76
-1.40
-1.58
-1.06
0.06
1.39
2.43
2.85
2.57
1.81
0.92
0.21
-0.18
-0.26
-0.14
0.11
0.50
1.09
1.93
2.94
3.92
4.68
5.04
5.02
4.77
4.51
4.42
4.56
4.83
5.02
4.97
4.67
4.25
3.93
3.82
3.92
4.01
3.86
3.33
2.48
1.51
0.71
0.24
0.12
0.18
0.25
0.17
-0.13
-0.64
-1.30
-2.02
-2.71
-3.27
-3.67
-3.91
-4.03
-4.05
-3.96
-3.73
-3.35
-2.90
-2.55
-2.42
-2.53
-2.73
-2.81
-2.58
-2.02
-1.28
-0.63
-0.24
-0.16
-0.26
-0.35
-0.26
0.05
0.55
1.12
1.66
2.06
2.25
2.20
1.93
1.56
1.23
1.09
1.19
1.43
1.62
1.57
1.18
0.49
-0.33
-1.09
-1.69
-2.13
-2.47
-2.74
-2.88
-2.80
-2.44
-1.85
-1.21
-0.68
-0.38
-0.25
-0.12
0.16
0.63
1.17
1.59
1.73
1.61
1.37
1.23
1.35
1.73
2.24
2.70
2.97
3.02
2.92
2.78
2.68
2.67
2.72
2.74
2.65
2.39
1.95
1.37
0.73
0.09
-0.51
-1.09
-1.67
-2.26
-2.79
-3.16
-3.27
-3.08
-2.68
-2.23
-1.89
-1.77
-1.85
-1.98
-2.04
-1.96
-1.78
-1.61
-1.53
-1.54
-1.56
-1.43
-1.09
-0.60
-0.09
0.26
0.37
0.28
0.11
0.02
0.11
0.35
0.65
0.93
1.09
1.11
1.03
0.90
0.75
0.57
0.36
0.12
-0.14
-0.36
-0.50
-0.49
-0.31
0.05
0.54
1.09
1.59
1.95
2.16
2.25
2.29
2.39
2.55
2.73
2.84
2.80
2.60
2.32
2.09
2.02
2.15
2.44
2.79
3.10
3.29
3.33
3.25
3.09
2.91
2.74
2.53
2.19
1.63
0.78
-0.28
-1.43
-2.46
-3.24
-3.66
-3.74
-3.53
-3.07
-2.44
-1.69
-0.90
-0.21
0.25
0.44
0.37
0.18
0.05
0.07
0.25
0.50
0.70
0.82
0.92
1.08
1.40
1.82
2.22
2.40
2.24
1.76
1.14
0.58
0.27
0.23
0.38
0.57
0.70
0.72
0.69
0.65
0.54
0.30
-0.19
-0.91
-1.72
-2.34
-2.56
-2.27
-1.60
-0.83
-0.25
-0.01
-0.08
-0.28
-0.38
-0.24
0.13
0.63
1.06
1.30
1.28
1.06
0.73
0.40
0.14
-0.08
-0.26
-0.42
-0.51
-0.44
-0.16
0.26
0.66
0.77
0.42
-0.45
-1.71
-3.12
-4.37
-5.23
-5.62
-5.60
-5.36
-5.11
-5.03
-5.15
-5.38
-5.55
-5.56
-5.45
-5.36
-5.48
-5.89
-6.49
-7.09
-7.49
-7.65
-7.68
-7.80
-8.19
-8.91
-9.86
-10.91
-11.94
-12.96
-14.05
-15.34
-16.90
-18.74
-20.79
-22.95
-25.06
-26.92
-28.29
-28.93
-28.70
-27.60
-25.75
-23.31
-20.37
-16.97
-13.12
-9.01
-5.00
-1.61
0.64
1.52
1.10
-0.18
-1.82
-3.38
-4.69
-5.77
-6.77
-7.75
-8.77
-9.82
-10.90
-12.08
-13.41
-14.87
-16.29
-17.32
-17.64
-17.00
-15.39
-13.05
-10.40
-7.90
-5.82
-4.22
-2.93
-1.73
-0.46
0.84
1.99
2.78
3.15
3.28
3.45
3.98
4.97
6.30
7.70
8.86
9.64
10.12
10.59
11.35
12.52
13.95
15.29
16.17
16.34
15.79
14.69
13.39
12.18
11.18
10.37
9.69
9.08
8.60
8.23
7.89
7.47
6.83
5.83
4.45
2.93
1.72
1.30
1.97
3.77
6.92
11.47
17.15
23.39
29.40
34.38
37.65
38.79
37.78
35.87
34.47
34.47
35.86
37.93
39.87
41.09
41.47
41.42
42.93
47.73
56.25
67.22
78.28
87.20
92.47
93.82
92.11
90.63
92.35
98.62
108.31
118.84
127.68
132.89
133.16
117.17
78.56
19.72
-47.38
-107.75
-150.32
-170.40
-170.57
-157.99
-140.21
-122.15
-106.58
-94.28
-84.83
-78.55
-74.80
-72.70
-71.33
-69.68
-65.43
-56.58
-42.47
-24.37
-4.88
13.57
29.07
40.56
47.53
50.16
48.46
42.22
31.47
17.22
1.80
-12.01
-22.04
-27.47
-28.47
-25.94
-20.96
-14.49
-7.35
-0.35
5.41
8.82
9.18
6.85
3.17
-0.03
-1.22
0.14
3.47
7.28
9.85
10.03
7.67
3.71
-0.35
-3.04
-3.57
-2.04
0.72
3.63
5.85
7.22
8.16
9.40
11.64
15.15
19.69
24.54
28.67
30.90
30.11
25.40
16.46
3.77
-11.26
-26.52
-39.77
-49.27
-54.28
-55.21
-53.33
-50.20
-47.19
-45.14
-44.27
-44.32
-44.72
-44.67
-43.32
-39.95
-34.14
-26.08
-16.50
-6.56
2.55
9.97
15.30
18.63
20.24
20.41
19.29
16.97
13.53
9.15
4.18
-0.99
-5.89
-10.13
-13.38
-15.51
-16.59
-16.88
-16.68
-16.20
-15.50
-14.53
-13.25
-11.68
-9.84
-7.72
-5.26
-2.47
0.34
2.57
3.48
2.60
0.10
-3.22
-6.22
-8.07
-8.60
-8.41
-8.46
-9.51
-11.66
-14.29
-16.30
-16.65
-14.75
-10.72
-5.27
0.60
5.96
10.28
13.47
15.74
17.30
18.15
18.05
16.66
13.78
9.60
4.63
-0.39
-4.66
-7.51
-8.50
-7.61
-5.31
-2.60
-0.71
-0.55
-2.18
-4.63
-6.14
-4.88
0.19
8.87
19.72
30.66
39.75
45.82
48.72
49.08
47.93
46.16
44.41
43.07
42.54
43.25
45.40
48.56
51.53
52.81
51.49
48.09
44.41
42.50
43.06
44.60
44.02
38.43
27.10
12.18
-2.20
-12.13
-15.75
-13.62
-7.70
0.40
10.32
22.51
36.68
50.40
58.98
56.89
40.12
8.27
-34.62
-81.16
-122.79
-152.54
-166.93
-166.53
-155.07
-137.60
-118.60
-100.75
-84.72
-69.87
-55.36
-40.89
-26.98
-14.49
-4.06
4.33
11.23
17.31
22.78
27.13
29.42
28.81
25.16
19.29
12.78
7.34
4.19
3.65
5.21
7.89
10.73
13.31
15.78
18.60
22.13
26.17
29.86
31.97
31.45
27.98
22.05
14.87
7.77
1.75
-2.75
-5.86
-7.95
-9.46
-10.66
-11.73
-12.73
-13.69
-14.56
-15.20
-15.39
-14.96
-13.94
-12.63
-11.54
-11.14
-11.60
-12.67
-13.72
-14.05
-13.19
-11.07
-7.91
-3.98
0.62
6.00
12.29
19.39
26.86
33.98
39.95
44.18
46.39
46.62
45.11
42.14
38.02
33.04
27.50
21.70
15.91
10.30
4.96
-0.12
-4.98
-9.65
-14.05
-17.91
-20.81
-22.26
-21.89
-19.55
-15.48
-10.26
-4.68
0.41
4.30
6.67
7.61
7.52
6.95
6.34
5.94
5.81
5.91
6.27
6.95
8.00
9.33
10.62
11.42
11.31
10.10
7.87
4.98
1.86
-1.07
-3.52
-5.35
-6.55
-7.19
-7.44
-7.57
-7.85
-8.51
-9.58
-10.76
-11.46
-10.98
-8.88
-5.20
-0.60
3.86
7.13
8.63
8.47
7.32
6.10
5.46
5.56
6.07
6.44
6.23
5.30
3.84
2.19
0.66
-0.63
-1.67
-2.53
-3.22
-3.65
-3.71
-3.39
-2.83
-2.27
-1.96
-1.99
-2.31
-2.75
-3.13
-3.33
-3.29
-2.92
-2.09
-0.63
1.51
4.18
7.04
9.68
11.79
13.26
14.19
14.70
14.87
14.66
13.96
12.74
11.08
9.18
7.27
5.54
4.07
2.81
1.62
0.34
-1.09
-2.62
-4.09
-5.29
-6.12
-6.62
-6.92
-7.18
-7.43
-7.54
-7.32
-6.71
-5.86
-5.10
-4.71
-4.75
-4.97
-4.93
-4.31
-3.11
-1.66
-0.47
0.13
0.20
0.23
0.86
2.60
5.53
9.26
13.11
16.34
18.37
18.91
17.95
15.63
12.15
7.68
2.43
-3.39
-9.42
-15.19
-20.14
-23.74
-25.65
-25.77
-24.23
-21.32
-17.40
-12.83
-7.99
-3.26
0.99
4.42
6.80
8.10
8.46
8.15
7.53
6.96
6.73
7.06
8.00
9.40
10.95
12.23
12.85
12.57
11.33
9.27
6.66
3.91
1.41
-0.50
-1.67
-2.21
-2.52
-3.11
-4.36
-6.43
-9.07
-11.85
-14.28
-16.06
-17.12
-17.56
-17.47
-16.87
-15.72
-14.02
-11.86
-9.43
-6.94
-4.48
-2.03
0.50
3.13
5.84
8.53
11.11
13.58
15.96
18.23
20.32
22.07
23.28
23.83
23.66
22.78
21.21
18.96
16.08
12.67
8.94
5.13
1.42
-2.11
-5.45
-8.61
-11.52
-14.01
-15.86
-16.94
-17.25
-16.93
-16.19
-15.14
-13.76
-11.94
-9.57
-6.78
-3.86
-1.27
0.63
1.73
2.20
2.35
2.44
2.49
2.39
2.02
1.47
1.06
1.16
1.97
3.31
4.66
5.40
5.09
3.67
1.47
-1.04
-3.43
-5.45
-7.06
-8.35
-9.42
-10.32
-11.04
-11.53
-11.83
-12.01
-12.17
-12.33
-12.36
-11.90
-10.56
-8.12
-4.65
-0.57
3.61
7.52
11.12
14.58
18.05
21.43
24.26
25.95
26.13
24.87
22.65
20.12
17.79
15.80
13.96
12.00
9.72
7.13
4.39
1.72
-0.67
-2.59
-3.90
-4.51
-4.43
-3.73
-2.54
-1.00
0.84
2.87
5.01
7.07
8.85
10.22
11.23
12.03
12.77
13.47
13.92
13.80
12.80
10.86
8.21
5.24
2.45
0.19
-1.32
-2.01
-1.97
-1.35
-0.43
0.51
1.17
1.35
1.00
0.21
-0.84
-2.01
-3.17
-4.28
-5.34
-6.29
-7.08
-7.63
-7.86
-7.76
-7.26
-6.31
-4.85
-2.87
-0.55
1.76
3.61
4.64
4.72
4.06
3.08
2.18
1.63
1.40
1.29
1.00
0.40
-0.51
-1.56
-2.55
-3.35
-4.01
-4.71
-5.70
-7.15
-9.07
-11.23
-13.25
-14.67
-15.12
-14.41
-12.60
-9.90
-6.68
-3.36
-0.39
1.82
3.01
3.14
2.46
1.41
0.41
-0.24
-0.52
-0.56
-0.57
-0.65
-0.82
-1.02
-1.29
-1.74
-2.49
-3.49
-4.50
-5.07
-4.85
-3.78
-2.26
-1.07
-1.04
-2.67
-5.88
-9.99
-13.92
-16.63
-17.40
-16.06
-12.98
-8.84
-4.45
-0.45
2.79
5.28
7.24
9.03
10.91
12.98
15.07
16.82
17.87
17.97
17.24
16.11
15.30
15.56
17.33
20.54
24.49
28.02
29.90
29.22
25.66
19.54
11.67
3.07
-5.24
-12.43
-17.93
-21.48
-23.13
-23.20
-22.19
-20.57
-18.73
-16.89
-15.19
-13.70
-12.50
-11.59
-10.94
-10.42
-9.90
-9.29
-8.58
-7.76
-6.83
-5.75
-4.44
-2.87
-1.08
0.77
2.49
3.94
5.07
5.94
6.67
7.38
8.07
8.64
8.95
8.82
8.18
7.09
5.69
4.15
2.58
0.97
-0.69
-2.45
-4.25
-5.97
-7.44
-8.54
-9.21
-9.41
-9.11
-8.27
-6.86
-4.94
-2.71
-0.41
1.66
3.28
4.28
4.53
3.97
2.56
0.47
-1.90
-3.91
-4.92
-4.45
-2.45
0.69
4.27
7.57
10.04
11.49
11.94
11.49
10.17
7.92
4.77
0.94
-3.11
-6.76
-9.48
-11.00
-11.40
-10.98
-10.07
-8.88
-7.48
-5.92
-4.38
-3.13
-2.45
-2.33
-2.37
-1.99
-0.70
1.53
4.19
6.47
7.75
7.93
7.47
7.05
7.08
7.43
7.56
6.82
4.94
2.17
-0.88
-3.59
-5.72
-7.39
-8.95
-10.63
-12.40
-13.96
-14.93
-15.12
-14.64
-13.88
-13.29
-13.24
-13.79
-14.74
-15.69
-16.25
-16.12
-15.21
-13.56
-11.31
-8.62
-5.68
-2.78
-0.24
1.64
2.80
3.61
4.79
7.19
11.30
16.89
22.98
28.13
31.00
30.87
27.90
22.93
17.13
11.48
6.51
2.35
-1.10
-3.93
-6.08
-7.43
-7.93
-7.73
-7.21
-6.80
-6.82
-7.24
-7.74
-7.83
-7.13
-5.51
-3.14
-0.35
2.51
5.20
7.55
9.47
10.82
11.49
11.43
10.68
9.45
7.98
6.51
5.21
4.11
3.23
2.47
1.69
0.67
-0.84
-3.04
-6.02
-9.65
-13.59
-17.42
-20.72
-23.21
-24.75
-25.34
-25.05
-24.00
-22.32
-20.23
-17.94
-15.74
-13.83
-12.34
-11.21
-10.18
-8.84
-6.70
-3.44
0.93
5.96
10.84
14.75
17.19
18.22
18.40
18.48
19.00
20.08
21.30
22.03
21.71
20.11
17.40
14.02
10.43
6.94
3.61
0.37
-2.86
-5.94
-8.59
-10.41
-11.19
-11.00
-10.22
-9.35
-8.76
-8.52
-8.42
-8.09
-7.20
-5.62
-3.43
-0.87
1.82
4.40
6.67
8.47
9.63
10.06
9.79
8.98
7.91
6.92
6.23
5.97
6.09
6.39
6.66
6.67
6.28
5.43
4.12
2.39
0.31
-2.03
-4.55
-7.09
-9.46
-11.44
-12.86
-13.71
-14.15
-14.49
-15.06
-15.97
-17.07
-18.03
-18.43
-18.01
-16.73
-14.70
-12.10
-9.09
-5.84
-2.62
0.12
1.87
2.31
1.52
0.18
-0.66
-0.02
2.63
7.02
12.23
17.04
20.41
21.84
21.40
19.62
17.10
14.31
11.46
8.56
5.62
2.74
0.13
-1.95
-3.39
-4.23
-4.72
-5.10
-5.50
-5.81
-5.76
-5.06
-3.67
-1.82
0.05
1.53
2.35
2.56
2.42
2.26
2.32
2.64
3.09
3.41
3.38
2.90
2.07
1.10
0.26
-0.26
-0.42
-0.27
0.05
0.40
0.67
0.75
0.52
-0.17
-1.37
-3.01
-4.87
-6.65
-8.10
-9.13
-9.76
-10.09
-10.16
-9.91
-9.23
-8.07
-6.53
-4.80
-3.14
-1.73
-0.67
0.06
0.52
0.86
1.28
2.10
3.57
5.85
8.82
12.12
15.18
17.44
18.48
18.12
16.42
13.58
9.90
5.71
1.35
-2.87
-6.70
-9.90
-12.27
-13.68
-14.08
-13.56
-12.39
-10.92
-9.47
-8.18
-6.97
-5.57
-3.73
-1.38
1.31
3.99
6.25
7.88
8.83
9.31
9.58
9.90
10.36
10.84
11.12
10.92
10.08
8.70
7.08
5.58
4.44
3.62
2.78
1.46
-0.68
-3.66
-7.13
-10.55
-13.37
-15.31
-16.34
-16.65
-16.51
-16.16
-15.74
-15.28
-14.76
-14.10
-13.22
-11.97
-10.27
-8.05
-5.36
-2.37
0.59
3.09
4.73
5.38
5.27
5.05
5.51
7.27
10.38
14.31
18.09
20.74
21.64
20.71
18.38
15.28
12.00
8.88
6.06
3.51
1.18
-0.93
-2.79
-4.35
-5.57
-6.42
-7.01
-7.45
-7.92
-8.48
-9.05
-9.48
-9.54
-9.16
-8.37
-7.35
-6.30
-5.34
-4.46
-3.57
-2.56
-1.36
-0.01
1.40
2.76
4.00
5.11
6.05
6.85
7.48
7.92
8.14
8.11
7.82
7.30
6.59
5.72
4.70
3.52
2.15
0.60
-1.05
-2.66
-4.12
-5.36
-6.42
-7.37
-8.30
-9.21
-10.04
-10.62
-10.80
-10.44
-9.49
-8.07
-6.42
-4.92
-3.93
-3.61
-3.78
-3.89
-3.20
-1.13
2.50
7.27
12.35
16.78
19.85
21.29
21.25
20.13
18.31
15.99
13.24
10.07
6.56
2.87
-0.79
-4.23
-7.37
-10.20
-12.69
-14.76
-16.24
-16.90
-16.57
-15.21
-12.97
-10.16
-7.12
-4.12
-1.38
0.97
2.85
4.16
4.82
4.82
4.27
3.42
2.63
2.22
2.42
3.25
4.54
6.03
7.42
8.48
8.97
8.69
7.50
5.41
2.65
-0.31
-2.89
-4.63
-5.39
-5.43
-5.27
-5.41
-6.11
-7.20
-8.21
-8.60
-8.05
-6.54
-4.36
-1.94
0.28
1.92
2.74
2.61
1.65
0.28
-0.79
-0.77
0.89
4.18
8.46
12.65
15.63
16.65
15.54
12.69
8.82
4.69
0.93
-2.06
-4.07
-5.13
-5.39
-5.14
-4.65
-4.22
-3.99
-4.10
-4.61
-5.54
-6.79
-8.11
-9.12
-9.42
-8.76
-7.13
-4.82
-2.24
0.16
2.08
3.41
4.22
4.66
4.85
4.89
4.74
4.37
3.73
2.84
1.80
0.75
-0.17
-0.83
-1.17
-1.14
-0.71
0.10
1.21
2.41
3.43
4.01
4.02
3.49
2.60
1.53
0.42
-0.70
-1.83
-2.92
-3.89
-4.62
-5.06
-5.18
-5.02
-4.53
-3.63
-2.18
-0.11
2.52
5.53
8.73
11.99
15.27
18.50
21.49
23.86
25.13
24.94
23.24
20.32
16.69
12.85
9.06
5.37
1.64
-2.19
-6.06
-9.75
-12.96
-15.45
-17.12
-18.00
-18.17
-17.75
-16.85
-15.54
-13.90
-12.02
-9.99
-7.95
-6.04
-4.38
-3.05
-2.01
-1.17
-0.39
0.41
1.24
2.05
2.76
3.34
3.77
3.99
3.93
3.48
2.58
1.30
-0.18
-1.65
-2.95
-4.06
-5.03
-5.98
-6.93
-7.85
-8.70
-9.44
-10.12
-10.85
-11.69
-12.57
-13.30
-13.56
-13.06
-11.64
-9.30
-6.24
-2.77
0.77
4.16
7.24
9.94
12.14
13.67
14.35
14.10
13.11
11.76
10.59
10.01
10.17
10.84
11.58
11.86
11.28
9.70
7.23
4.17
0.83
-2.48
-5.52
-8.17
-10.35
-11.99
-13.05
-13.46
-13.20
-12.30
-10.89
-9.21
-7.51
-5.98
-4.72
-3.70
-2.81
-1.91
-0.89
0.25
1.45
2.61
3.62
4.43
5.04
5.48
5.83
6.15
6.50
6.90
7.26
7.50
7.51
7.21
6.63
5.83
4.86
3.76
2.51
1.12
-0.32
-1.65
-2.73
-3.54
-4.23
-5.03
-6.13
-7.48
-8.81
-9.73
-9.89
-9.18
-7.72
-5.78
-3.63
-1.48
0.49
2.08
3.09
3.42
3.14
2.61
2.33
2.82
4.34
6.82
9.87
12.90
15.28
16.52
16.35
14.69
11.73
7.81
3.41
-0.93
-4.75
-7.70
-9.65
-10.66
-10.93
-10.71
-10.30
-9.88
-9.57
-9.32
-9.00
-8.46
-7.52
-6.09
-4.12
-1.67
1.13
4.06
6.79
8.99
10.40
10.94
10.70
9.90
8.72
7.31
5.68
3.87
1.97
0.17
-1.30
-2.31
-2.90
-3.25
-3.61
-4.15
-4.90
-5.74
-6.48
-6.93
-7.04
-6.90
-6.69
-6.65
-6.92
-7.46
-8.06
-8.41
-8.25
-7.46
-6.11
-4.38
-2.44
-0.45
1.44
3.08
4.21
4.71
4.70
4.58
4.96
6.34
8.84
12.01
15.03
17.00
17.32
15.86
12.91
8.94
4.41
-0.32
-4.95
-9.12
-12.41
-14.41
-14.93
-14.08
-12.27
-10.05
-7.91
-6.14
-4.84
-3.92
-3.25
-2.68
-2.11
-1.52
-0.92
-0.34
0.16
0.56
0.90
1.29
1.84
2.65
3.75
5.05
6.38
7.53
8.32
8.59
8.29
7.41
6.00
4.13
1.90
-0.56
-3.07
-5.40
-7.37
-8.86
-9.85
-10.47
-10.88
-11.24
-11.58
-11.86
-11.94
-11.74
-11.26
-10.56
-9.72
-8.67
-7.23
-5.12
-2.21
1.34
4.99
8.00
9.71
9.88
8.87
7.47
6.53
6.56
7.51
8.83
9.82
10.02
9.42
8.36
7.27
6.37
5.60
4.68
3.37
1.61
-0.40
-2.36
-4.00
-5.18
-5.90
-6.23
-6.26
-6.11
-5.83
-5.48
-5.05
-4.45
-3.55
-2.26
-0.55
1.46
3.55
5.45
6.94
7.85
8.13
7.85
7.17
6.33
5.56
5.02
4.71
4.47
4.03
3.12
1.61
-0.44
-2.85
-5.31
-7.52
-9.26
-10.46
-11.18
-11.57
-11.82
-12.07
-12.39
-12.78
-13.22
-13.69
-14.16
-14.49
-14.51
-14.01
-12.83
-10.95
-8.44
-5.48
-2.27
0.97
4.06
6.81
9.10
10.90
12.32
13.50
14.56
15.51
16.22
16.47
16.13
15.15
13.67
11.89
10.01
8.20
6.50
4.89
3.31
1.65
-0.12
-1.94
-3.68
-5.18
-6.31
-7.08
-7.61
-8.02
-8.33
-8.42
-8.09
-7.16
-5.67
-3.83
-1.98
-0.37
0.95
2.09
3.22
4.39
5.47
6.29
6.75
6.95
7.16
7.67
8.57
9.71
10.69
11.09
10.67
9.44
7.59
5.33
2.80
0.05
-2.88
-5.81
-8.44
-10.41
-11.48
-11.66
-11.26
-10.80
-10.71
-11.15
-11.89
-12.43
-12.20
-10.89
-8.54
-5.50
-2.36
0.37
2.32
3.35
3.51
2.98
2.08
1.25
0.97
1.71
3.73
6.92
10.77
14.46
17.14
18.16
17.33
14.85
11.23
7.09
2.93
-0.88
-4.17
-6.86
-8.95
-10.48
-11.53
-12.22
-12.69
-13.02
-13.25
-13.26
-12.89
-11.92
-10.18
-7.67
-4.56
-1.21
1.94
4.55
6.43
7.66
8.54
9.37
10.31
11.29
12.01
12.15
11.47
10.02
8.07
5.97
3.99
2.23
0.60
-1.01
-2.69
-4.37
-5.96
-7.41
-8.72
-9.90
-10.89
-11.49
-11.44
-10.56
-8.88
-6.72
-4.58
-2.92
-1.99
-1.70
-1.67
-1.42
-0.54
1.13
3.37
5.69
7.52
8.43
8.42
7.85
7.30
7.26
7.83
8.72
9.36
9.30
8.48
7.34
6.52
6.56
7.57
9.11
10.38
10.55
9.11
6.02
1.70
-3.09
-7.50
-10.74
-12.22
-11.68
-9.19
-5.24
-0.66
3.53
6.26
6.76
4.64
0.03
-6.48
-14.06
-21.86
-29.23
-35.66
-40.64
-43.49
-43.34
-39.39
-31.35
-19.82
-6.35
6.84
17.58
24.29
26.31
23.87
17.67
8.62
-2.38
-14.30
-26.03
-36.44
-44.65
-50.24
-53.32
-54.44
-54.27
-53.44
-52.35
-51.16
-49.84
-48.16
-45.70
-41.94
-36.56
-29.65
-21.92
-14.53
-8.64
-4.91
-3.11
-2.24
-0.95
1.79
6.18
11.53
16.60
20.16
21.58
20.90
18.73
15.80
12.73
9.94
7.75
6.64
7.18
9.93
15.09
22.35
30.89
39.63
47.65
54.35
59.58
63.50
66.33
68.29
69.49
70.03
70.06
69.81
69.53
69.46
69.69
70.19
70.80
71.33
71.62
71.46
70.65
68.87
65.80
61.24
55.33
48.58
41.71
35.42
29.96
25.05
19.97
13.87
6.23
-2.89
-12.83
-22.61
-31.19
-37.75
-41.75
-42.91
-41.29
-37.26
-31.55
-25.23
-19.44
-15.17
-12.95
-12.75
-14.10
-16.30
-18.65
-20.63
-21.87
-22.13
-21.32
-19.50
-16.94
-14.06
-11.37
-9.28
-8.06
-7.81
-8.53
-10.17
-12.65
-15.77
-19.19
-22.42
-24.91
-26.24
-26.24
-25.05
-23.06
-20.76
-18.52
-16.51
-14.70
-12.93
-11.08
-9.09
-6.99
-4.80
-2.54
-0.21
2.21
4.64
6.96
9.00
10.62
11.74
12.36
12.58
12.57
12.56
12.80
13.45
14.54
15.89
17.18
17.99
18.03
17.22
15.74
14.04
12.66
12.00
12.09
12.55
12.69
11.81
9.55
6.13
2.23
-1.24
-3.61
-4.71
-4.94
-4.92
-5.17
-5.80
-6.47
-6.68
-6.11
-4.82
-3.31
-2.26
-2.19
-3.27
-5.26
-7.65
-9.88
-11.57
-12.51
-12.63
-11.93
-10.44
-8.24
-5.52
-2.63
0.05
2.12
3.42
3.96
3.99
3.83
3.72
3.77
3.92
4.01
3.99
3.88
3.84
4.05
4.62
5.49
6.51
7.43
8.05
8.24
7.91
7.07
5.76
4.08
2.18
0.22
-1.63
-3.25
-4.59
-5.67
-6.54
-7.31
-8.08
-8.93
-9.91
-10.93
-11.80
-12.26
-12.10
-11.25
-9.90
-8.39
-7.15
-6.43
-6.25
-6.37
-6.52
-6.46
-6.11
-5.46
-4.64
-3.81
-3.00
-2.17
-1.23
-0.19
0.86
1.82
2.66
3.30
3.62
3.50
2.90
1.85
0.31
-1.68
-4.00
-6.30
-8.50
-10.67
-12.90
-15.22
-17.61
-20.49
-24.13
-28.44
-32.49
-35.70
-37.67
-38.25
-37.41
-35.41
-33.67
-33.42
-35.04
-37.11
-38.88
-39.99
-40.49
-40.33
-39.44
-39.16
-40.22
-42.20
-42.39
-40.15
-36.17
-32.18
-29.61
-29.40
-33.73
-43.52
-57.83
-72.38
-85.08
-95.17
-103.11
-109.26
-102.16
-76.51
-35.70
-1.28
22.27
35.69
44.65
51.27
56.72
61.50
63.82
62.42
57.57
52.83
49.73
48.67
49.03
50.47
52.78
54.22
53.55
50.58
47.60
45.35
43.83
42.45
41.08
39.74
37.59
34.08
29.36
25.18
22.23
20.65
20.07
20.17
20.60
20.64
19.81
18.17
16.63
15.59
15.09
14.80
14.36
13.52
12.04
9.95
7.53
5.35
3.69
2.56
1.73
0.98
0.12
-0.90
-2.00
-2.99
-3.67
-3.89
-3.57
-2.81
-1.77
-0.68
0.22
0.75
0.85
0.54
-0.04
-0.65
-1.08
-1.18
-0.93
-0.47
0.05
0.51
0.91
1.30
1.70
2.00
2.02
1.56
0.59
-0.69
-1.87
-2.56
-2.56
-1.93
-1.02
-0.22
0.16
-0.03
-0.77
-1.96
-3.50
-5.25
-7.04
-8.72
-10.12
-11.18
-11.95
-12.59
-13.27
-14.15
-15.23
-16.38
-17.41
-18.07
-18.17
-17.62
-16.45
-14.83
-13.06
-11.41
-10.15
-9.38
-9.06
-8.99
-8.94
-8.69
-8.19
-7.54
-6.98
-6.77
-7.01
-7.63
-8.32
-8.62
-8.12
-6.57
-3.96
-0.60
2.98
6.11
8.15
8.66
7.54
5.07
1.86
-1.33
-3.90
-5.54
-6.34
-6.66
-6.96
-7.54
-8.52
-9.74
-10.92
-11.74
-11.93
-11.36
-10.06
-8.20
-6.09
-4.09
-2.48
-1.36
-0.59
0.20
1.42
3.37
6.12
9.39
12.73
15.67
17.86
19.22
19.83
19.84
19.33
18.28
16.65
14.51
12.03
9.46
7.07
4.99
3.23
1.69
0.26
-1.14
-2.51
-3.79
-4.90
-5.74
-6.27
-6.47
-6.36
-5.93
-5.14
-3.90
-2.14
0.08
2.51
4.73
6.27
6.78
6.22
4.86
3.21
1.83
1.09
1.09
1.57
2.10
2.22
1.59
0.16
-1.88
-4.18
-6.40
-8.35
-9.97
-11.34
-12.48
-13.40
-14.02
-14.29
-14.14
-13.49
-12.22
-10.13
-7.10
-3.20
1.23
5.62
9.40
12.13
13.57
13.75
12.82
11.03
8.70
6.25
4.13
2.73
2.21
2.45
3.09
3.67
3.86
3.56
2.94
2.30
1.93
1.99
2.45
3.10
3.67
3.89
3.68
3.19
2.75
2.78
3.56
5.11
7.10
9.03
10.41
10.95
10.69
9.83
8.67
7.42
6.18
4.92
3.62
2.26
0.84
-0.71
-2.47
-4.53
-6.88
-9.34
-11.61
-13.32
-14.19
-14.14
-13.25
-11.74
-9.81
-7.63
-5.31
-2.91
-0.50
1.86
4.16
6.46
8.84
11.32
13.78
15.93
17.30
17.44
15.97
12.86
8.43
3.36
-1.43
-5.04
-6.88
-6.85
-5.40
-3.45
-2.04
-1.96
-3.46
-6.20
-9.39
-12.18
-13.96
-14.55
-14.18
-13.29
-12.33
-11.59
-11.14
-10.84
-10.33
-9.07
-6.52
-2.34
3.31
9.69
15.64
19.98
22.03
21.88
20.33
18.45
17.11
16.62
16.78
17.13
17.29
17.05
16.37
15.24
13.54
11.10
7.88
4.05
0.08
-3.39
-5.78
-6.79
-6.50
-5.32
-3.86
-2.68
-2.15
-2.32
-2.99
-3.75
-4.19
-4.01
-3.13
-1.66
0.17
2.07
3.85
5.35
6.52
7.34
7.79
7.89
7.68
7.26
6.79
6.45
6.31
6.39
6.53
6.54
6.22
5.45
4.25
2.79
1.34
0.19
-0.48
-0.64
-0.43
-0.08
0.20
0.24
0.04
-0.26
-0.44
-0.27
0.40
1.61
3.13
4.60
5.51
5.48
4.38
2.53
0.59
-0.64
-0.53
1.06
3.79
6.93
9.70
11.49
12.10
11.64
10.44
8.86
7.17
5.53
4.03
2.77
1.87
1.44
1.51
1.93
2.45
2.75
2.60
1.98
1.06
0.19
-0.31
-0.22
0.44
1.49
2.60
3.43
3.75
3.45
2.66
1.60
0.59
-0.17
-0.60
-0.74
-0.69
-0.54
-0.33
-0.11
0.05
0.08
-0.03
-0.12
0.05
0.76
2.13
4.03
6.07
7.78
8.78
8.96
8.47
7.61
6.71
5.98
5.46
5.03
4.55
3.90
3.10
2.26
1.56
1.17
1.15
1.52
2.23
3.25
4.49
5.80
6.98
7.73
7.85
7.33
6.42
5.60
5.31
5.81
6.98
8.40
9.47
9.72
8.90
7.08
4.54
1.65
-1.22
-3.79
-5.90
-7.47
-8.51
-9.13
-9.44
-9.54
-9.46
-9.15
-8.56
-7.70
-6.67
-5.66
-4.86
-4.37
-4.15
-4.06
-3.94
-3.73
-3.48
-3.32
-3.36
-3.63
-4.04
-4.45
-4.65
-4.35
-3.27
-1.20
1.85
5.54
9.23
12.13
13.65
13.58
12.20
10.09
7.84
5.79
3.93
2.02
-0.23
-2.88
-5.77
-8.55
-10.95
-12.83
-14.28
-15.47
-16.50
-17.27
-17.45
-16.65
-14.65
-11.49
-7.55
-3.34
0.63
4.05
6.79
8.92
10.52
11.75
12.73
13.62
14.54
15.57
16.68
17.71
18.44
18.57
17.83
16.00
13.02
9.02
4.40
-0.24
-4.35
-7.54
-9.79
-11.30
-12.42
-13.36
-14.20
-14.90
-15.44
-15.97
-16.64
-17.45
-18.04
-17.70
-15.70
-11.63
-5.78
0.91
7.14
11.77
14.22
14.59
13.45
11.53
9.38
7.25
5.22
3.29
1.57
0.20
-0.69
-1.13
-1.37
-1.70
-2.42
-3.67
-5.34
-7.16
-8.78
-9.92
-10.46
-10.46
-10.06
-9.36
-8.37
-6.97
-5.10
-2.75
-0.08
2.70
5.36
7.73
9.67
11.08
11.90
12.15
11.98
11.65
11.45
11.50
11.71
11.77
11.38
10.31
8.52
6.12
3.23
-0.04
-3.59
-7.22
-10.64
-13.53
-15.61
-16.77
-17.09
-16.76
-15.92
-14.59
-12.62
-9.84
-6.18
-1.86
2.58
6.44
9.06
10.06
9.46
7.65
5.25
2.85
0.87
-0.53
-1.39
-1.87
-2.11
-2.20
-2.22
-2.24
-2.36
-2.66
-3.16
-3.76
-4.33
-4.68
-4.77
-4.64
-4.46
-4.40
-4.47
-4.56
-4.41
-3.82
-2.77
-1.50
-0.36
0.38
0.69
0.83
1.21
2.15
3.74
5.76
7.80
9.46
10.40
10.44
9.49
7.56
4.80
1.56
-1.68
-4.39
-6.24
-7.21
-7.62
-7.97
-8.69
-10.00
-11.84
-13.89
-15.68
-16.66
-16.25
-13.98
-9.75
-3.98
2.32
7.81
11.26
12.07
10.52
7.65
4.76
2.83
2.12
2.24
2.46
2.20
1.28
-0.05
-1.38
-2.44
-3.23
-3.95
-4.84
-5.97
-7.18
-8.14
-8.52
-8.18
-7.17
-5.76
-4.24
-2.80
-1.45
-0.03
1.64
3.55
5.53
7.27
8.52
9.24
9.61
9.95
10.50
11.26
12.00
12.33
11.92
10.59
8.39
5.52
2.27
-1.08
-4.30
-7.17
-9.52
-11.18
-12.10
-12.35
-12.22
-12.09
-12.29
-12.88
-13.52
-13.62
-12.56
-10.04
-6.20
-1.65
2.82
6.51
9.04
10.37
10.71
10.36
9.64
8.83
8.17
7.83
7.90
8.26
8.68
8.87
8.63
7.90
6.80
5.50
4.15
2.82
1.45
-0.03
-1.61
-3.24
-4.75
-6.02
-7.03
-7.88
-8.74
-9.74
-10.86
-11.93
-12.66
-12.80
-12.24
-11.00
-9.18
-6.86
-4.13
-1.13
1.89
4.63
6.87
8.63
10.17
11.88
13.94
16.20
18.16
19.16
18.71
16.68
13.33
9.17
4.77
0.60
-3.04
-5.95
-8.08
-9.52
-10.47
-11.19
-11.88
-12.59
-13.27
-13.77
-13.97
-13.81
-13.31
-12.54
-11.60
-10.55
-9.52
-8.64
-7.99
-7.45
-6.74
-5.42
-3.11
0.28
4.43
8.75
12.54
15.29
16.78
17.05
16.28
14.69
12.48
9.91
7.26
4.81
2.78
1.20
-0.11
-1.39
-2.82
-4.44
-6.09
-7.54
-8.64
-9.35
-9.82
-10.24
-10.71
-11.19
-11.50
-11.43
-10.84
-9.66
-7.88
-5.49
-2.64
0.40
3.09
4.77
4.95
3.52
0.94
-1.90
-3.95
-4.39
-2.82
0.67
5.61
11.27
16.82
21.40
24.29
25.09
23.77
20.76
16.72
12.34
8.13
4.25
0.67
-2.76
-6.01
-8.84
-10.78
-11.36
-10.32
-7.76
-4.18
-0.34
3.01
5.29
6.25
5.92
4.55
2.48
0.04
-2.48
-4.85
-6.93
-8.64
-9.94
-10.85
-11.44
-11.83
-12.24
-12.91
-14.02
-15.61
-17.52
-19.43
-21.03
-22.18
-22.89
-23.25
-23.20
-22.38
-20.24
-16.36
-10.79
-4.10
2.71
8.75
13.61
17.46
20.88
24.37
28.01
31.42
33.99
35.28
35.27
34.34
33.03
31.69
30.34
28.74
26.61
23.88
20.79
17.77
15.25
13.43
12.23
11.26
10.06
8.26
5.72
2.59
-0.79
-3.97
-6.58
-8.46
-9.67
-10.50
-11.35
-12.61
-14.53
-17.13
-20.14
-23.12
-25.48
-26.70
-26.54
-25.13
-23.04
-21.02
-19.79
-19.78
-20.96
-22.87
-24.88
-26.38
-27.01
-26.72
-25.65
-24.00
-21.86
-19.20
-15.93
-12.01
-7.56
-2.81
1.99
6.70
11.32
15.91
20.47
24.78
28.44
30.97
31.93
31.10
28.54
24.54
19.63
14.43
9.63
5.85
3.57
3.01
4.08
6.41
9.45
12.55
15.17
16.95
17.81
17.92
17.59
17.11
16.72
16.51
16.49
16.65
17.01
17.60
18.43
19.42
20.43
21.31
21.95
22.40
22.80
23.30
23.99
24.83
25.55
25.80
25.21
23.50
20.53
16.35
11.07
4.91
-1.86
-8.79
-15.22
-20.39
-23.60
-24.47
-23.13
-20.26
-16.83
-13.80
-11.85
-11.20
-11.74
-13.16
-15.15
-17.42
-19.73
-21.87
-23.61
-24.81
-25.44
-25.64
-25.62
-25.58
-25.66
-25.89
-26.25
-26.69
-27.24
-27.95
-28.85
-29.89
-30.86
-31.49
-31.50
-30.74
-29.21
-27.06
-24.46
-21.52
-18.26
-14.64
-10.65
-6.41
-2.11
2.00
5.78
9.25
12.53
15.83
19.33
23.11
27.16
31.28
35.20
38.66
41.47
43.68
45.55
47.49
49.87
52.83
56.15
59.27
61.46
62.03
60.56
57.03
51.84
45.72
39.56
34.20
30.12
27.22
24.75
21.52
16.41
8.85
-0.82
-11.43
-21.39
-29.43
-34.95
-38.24
-40.08
-41.29
-42.33
-43.24
-43.78
-43.80
-43.42
-42.92
-42.62
-42.59
-42.64
-42.43
-41.65
-40.27
-38.52
-36.84
-35.66
-35.21
-35.42
-36.00
-36.54
-36.68
-36.23
-35.16
-33.63
-31.84
-30.04
-28.41
-27.01
-25.79
-24.58
-23.20
-21.55
-19.61
-17.52
-15.43
-13.47
-11.68
-10.04
-8.48
-7.00
-5.63
-4.43
-3.39
-2.44
-1.39
-0.08
1.65
3.85
6.48
9.44
12.63
15.90
19.10
22.04
24.54
26.46
27.79
28.65
29.20
29.57
29.80
29.82
29.48
28.67
27.35
25.59
23.54
21.42
19.42
17.68
16.19
14.86
13.46
11.78
9.68
7.17
4.40
1.59
-0.97
-3.08
-4.58
-5.39
-5.54
-5.20
-4.65
-4.25
-4.27
-4.85
-5.90
-7.17
-8.37
-9.29
-9.88
-10.15
-10.17
-9.97
-9.57
-9.04
-8.54
-8.26
-8.34
-8.78
-9.45
-10.07
-10.39
-10.26
-9.65
-8.61
-7.23
-5.57
-3.65
-1.53
0.73
2.99
5.07
6.78
8.00
8.66
8.79
8.54
8.10
7.69
7.44
7.36
7.33
7.11
6.49
5.37
3.86
2.19
0.68
-0.46
-1.17
-1.57
-1.87
-2.19
-2.59
-3.01
-3.42
-3.82
-4.29
-4.92
-5.72
-6.59
-7.35
-7.83
-7.95
-7.79
-7.53
-7.39
-7.54
-8.04
-8.83
-9.74
-10.57
-11.17
-11.45
-11.39
-11.01
-10.33
-9.37
-8.11
-6.58
-4.85
-3.05
-1.32
0.25
1.63
2.83
3.86
4.73
5.39
5.78
5.84
5.60
5.16
4.70
4.44
4.56
5.16
6.26
7.77
9.59
11.56
13.45
15.05
16.12
16.49
16.09
15.01
13.52
11.95
10.57
9.52
8.72
7.89
6.72
5.00
2.69
-0.02
-2.82
-5.40
-7.55
-9.18
-10.26
-10.81
-10.90
-10.61
-10.07
-9.45
-8.87
-8.42
-8.10
-7.90
-7.79
-7.77
-7.82
-7.85
-7.78
-7.50
-7.01
-6.35
-5.60
-4.80
-3.96
-3.02
-1.98
-0.91
0.09
0.89
1.43
1.73
1.89
2.02
2.15
2.27
2.31
2.20
1.91
1.40
0.64
-0.33
-1.45
-2.53
-3.31
-3.56
-3.12
-2.05
-0.52
1.20
2.88
4.41
5.74
6.91
7.95
8.88
9.75
10.63
11.56
12.53
13.46
14.23
14.70
14.80
14.48
13.75
12.60
11.06
9.20
7.15
5.06
3.04
1.10
-0.81
-2.75
-4.70
-6.62
-8.39
-9.93
-11.19
-12.17
-12.85
-13.18
-13.13
-12.73
-12.06
-11.24
-10.36
-9.46
-8.48
-7.36
-6.12
-4.88
-3.79
-2.96
-2.38
-1.88
-1.29
-0.45
0.65
1.93
3.25
4.47
5.47
6.16
6.42
6.19
5.49
4.49
3.42
2.55
1.99
1.68
1.40
0.90
0.06
-1.08
-2.32
-3.45
-4.29
-4.77
-4.84
-4.49
-3.68
-2.44
-0.93
0.59
1.79
2.41
2.38
1.81
0.96
0.14
-0.41
-0.56
-0.27
0.44
1.54
2.90
4.40
5.80
6.91
7.56
7.77
7.64
7.40
7.32
7.57
8.20
9.07
9.94
10.48
10.40
9.55
7.93
5.73
3.18
0.58
-1.85
-3.92
-5.49
-6.44
-6.72
-6.34
-5.48
-4.40
-3.40
-2.72
-2.43
-2.46
-2.63
-2.76
-2.72
-2.49
-2.12
-1.70
-1.30
-0.90
-0.47
0.02
0.54
0.99
1.27
1.28
1.03
0.58
0.01
-0.63
-1.34
-2.11
-2.89
-3.50
-3.71
-3.34
-2.35
-0.94
0.55
1.75
2.40
2.49
2.19
1.80
1.55
1.61
2.02
2.72
3.60
4.53
5.33
5.84
5.95
5.64
5.06
4.41
3.97
3.91
4.26
4.86
5.49
5.91
6.04
5.98
5.96
6.25
6.94
7.93
8.87
9.39
9.23
8.45
7.34
6.30
5.61
5.28
5.04
4.53
3.49
1.92
0.09
-1.61
-2.86
-3.59
-3.91
-4.10
-4.37
-4.85
-5.55
-6.44
-7.44
-8.49
-9.46
-10.17
-10.42
-10.06
-9.07
-7.63
-6.00
-4.48
-3.31
-2.59
-2.30
-2.29
-2.32
-2.13
-1.51
-0.37
1.18
2.86
4.31
5.18
5.26
4.56
3.31
1.86
0.59
-0.20
-0.40
-0.06
0.61
1.34
1.85
1.95
1.57
0.76
-0.35
-1.55
-2.66
-3.48
-3.86
-3.74
-3.16
-2.31
-1.42
-0.76
-0.46
-0.45
-0.50
-0.31
0.39
1.66
3.41
5.38
7.29
8.91
10.12
10.86
11.15
10.99
10.40
9.46
8.29
7.03
5.83
4.74
3.72
2.67
1.45
0.05
-1.47
-2.94
-4.16
-5.03
-5.51
-5.73
-5.86
-6.03
-6.34
-6.75
-7.14
-7.34
-7.26
-6.89
-6.31
-5.60
-4.80
-3.85
-2.64
-1.15
0.50
2.03
3.10
3.49
3.14
2.24
1.12
0.06
-0.76
-1.29
-1.56
-1.61
-1.42
-0.99
-0.37
0.29
0.75
0.79
0.29
-0.67
-1.88
-3.07
-4.01
-4.59
-4.84
-4.86
-4.77
-4.63
-4.46
-4.22
-3.86
-3.28
-2.41
-1.17
0.46
2.43
4.58
6.70
8.56
9.97
10.82
11.06
10.68
9.68
8.16
6.37
4.61
3.20
2.29
1.86
1.70
1.53
1.18
0.60
-0.13
-0.90
-1.72
-2.64
-3.75
-5.04
-6.37
-7.47
-8.06
-8.03
-7.42
-6.49
-5.56
-4.89
-4.55
-4.41
-4.21
-3.73
-2.91
-1.86
-0.79
0.11
0.78
1.28
1.73
2.18
2.58
2.83
2.87
2.72
2.51
2.38
2.35
2.32
2.12
1.59
0.75
-0.24
-1.10
-1.65
-1.86
-1.90
-2.08
-2.64
-3.59
-4.74
-5.71
-6.18
-5.98
-5.18
-3.99
-2.66
-1.35
-0.09
1.13
2.31
3.43
4.48
5.48
6.53
7.66
8.82
9.83
10.39
10.24
9.29
7.67
5.64
3.51
1.50
-0.31
-1.91
-3.29
-4.40
-5.13
-5.37
-5.04
-4.17
-2.88
-1.34
0.26
1.80
3.21
4.46
5.54
6.40
7.03
7.35
7.35
7.00
6.34
5.43
4.35
3.23
2.16
1.21
0.39
-0.32
-0.93
-1.41
-1.67
-1.59
-1.07
-0.15
1.02
2.20
3.19
3.85
4.12
4.00
3.48
2.57
1.27
-0.38
-2.24
-4.14
-5.87
-7.27
-8.24
-8.77
-8.89
-8.71
-8.34
-7.89
-7.43
-6.96
-6.48
-5.95
-5.37
-4.77
-4.18
-3.65
-3.16
-2.68
-2.14
-1.49
-0.72
0.15
1.08
2.05
3.09
4.22
5.48
6.82
8.15
9.32
10.18
10.64
10.70
10.41
9.85
9.07
8.07
6.82
5.29
3.52
1.59
-0.34
-2.11
-3.57
-4.67
-5.40
-5.81
-5.97
-5.93
-5.76
-5.52
-5.30
-5.16
-5.14
-5.24
-5.39
-5.48
-5.42
-5.14
-4.64
-4.00
-3.32
-2.66
-2.08
-1.54
-1.01
-0.47
0.08
0.59
1.01
1.27
1.31
1.07
0.52
-0.29
-1.22
-2.09
-2.74
-3.11
-3.27
-3.37
-3.52
-3.69
-3.79
-3.68
-3.38
-3.04
-2.84
-2.90
-3.17
-3.46
-3.52
-3.25
-2.71
-2.04
-1.43
-0.93
-0.48
0.11
1.04
2.49
4.45
6.78
9.10
10.99
12.03
12.04
11.16
9.77
8.38
7.37
6.91
6.89
7.02
7.02
6.69
5.97
4.90
3.57
2.06
0.44
-1.21
-2.77
-4.20
-5.43
-6.42
-7.11
-7.47
-7.47
-7.19
-6.78
-6.45
-6.37
-6.56
-6.87
-7.06
-6.92
-6.42
-5.73
-5.14
-4.86
-4.94
-5.21
-5.40
-5.28
-4.74
-3.83
-2.73
-1.67
-0.84
-0.35
-0.22
-0.41
-0.82
-1.32
-1.79
-2.14
-2.28
-2.15
-1.72
-1.04
-0.22
0.51
0.95
0.99
0.69
0.25
-0.08
-0.12
0.12
0.52
0.92
1.24
1.53
1.97
2.71
3.79
5.15
6.62
8.01
9.25
10.37
11.41
12.36
13.10
13.47
13.28
12.46
11.10
9.46
7.82
6.42
5.31
4.41
3.55
2.53
1.26
-0.28
-2.04
-3.93
-5.90
-7.84
-9.59
-10.97
-11.78
-11.94
-11.51
-10.74
-9.91
-9.27
-8.91
-8.79
-8.77
-8.70
-8.53
-8.22
-7.77
-7.12
-6.20
-4.95
-3.44
-1.85
-0.45
0.50
0.89
0.80
0.50
0.34
0.55
1.17
1.97
2.55
2.57
1.94
0.85
-0.30
-1.12
-1.41
-1.20
-0.75
-0.32
-0.05
0.11
0.33
0.75
1.45
2.36
3.40
4.47
5.56
6.67
7.76
8.74
9.43
9.71
9.56
9.14
8.67
8.35
8.23
8.15
7.86
7.16
6.04
4.63
3.13
1.68
0.26
-1.25
-2.98
-4.94
-7.01
-8.97
-10.62
-11.81
-12.48
-12.64
-12.34
-11.65
-10.69
-9.65
-8.77
-8.20
-7.94
-7.78
-7.43
-6.63
-5.32
-3.66
-1.96
-0.49
0.62
1.43
2.08
2.71
3.31
3.80
4.09
4.15
4.04
3.82
3.53
3.14
2.55
1.73
0.69
-0.48
-1.64
-2.66
-3.44
-3.92
-4.07
-3.86
-3.28
-2.35
-1.10
0.38
2.03
3.76
5.49
7.17
8.70
9.99
10.94
11.49
11.65
11.52
11.23
10.89
10.56
10.23
9.84
9.30
8.51
7.36
5.76
3.72
1.30
-1.27
-3.74
-5.87
-7.53
-8.77
-9.71
-10.52
-11.28
-11.96
-12.43
-12.57
-12.29
-11.61
-10.61
-9.42
-8.10
-6.67
-5.11
-3.40
-1.63
0.07
1.48
2.45
2.95
3.12
3.16
3.25
3.49
3.81
4.08
4.14
3.95
3.52
2.97
2.44
2.02
1.75
1.56
1.32
0.90
0.24
-0.67
-1.70
-2.64
-3.29
-3.49
-3.26
-2.67
-1.92
-1.21
-0.68
-0.40
-0.36
-0.47
-0.69
-0.94
-1.14
-1.20
-0.95
-0.18
1.24
3.28
5.71
8.10
9.96
10.91
10.84
9.89
8.45
6.94
5.69
4.85
4.39
4.18
4.07
3.94
3.71
3.28
2.55
1.42
-0.10
-1.91
-3.78
-5.44
-6.67
-7.39
-7.66
-7.61
-7.39
-7.10
-6.82
-6.57
-6.38
-6.22
-6.03
-5.66
-4.97
-3.88
-2.44
-0.83
0.76
2.16
3.32
4.25
4.96
5.47
5.78
5.92
5.95
5.90
5.77
5.42
4.76
3.71
2.36
0.95
-0.26
-1.05
-1.34
-1.16
-0.62
0.14
0.96
1.67
2.08
2.05
1.54
0.62
-0.52
-1.64
-2.49
-2.90
-2.81
-2.29
-1.50
-0.59
0.35
1.35
2.46
3.69
4.94
5.95
6.48
6.39
5.80
5.02
4.41
4.20
4.35
4.63
4.69
4.27
3.28
1.85
0.20
-1.44
-2.91
-4.14
-5.10
-5.78
-6.15
-6.20
-6.02
-5.73
-5.50
-5.42
-5.47
-5.46
-5.21
-4.59
-3.61
-2.41
-1.21
-0.16
0.68
1.33
1.84
2.30
2.72
3.15
3.56
3.92
4.14
4.08
3.61
2.70
1.41
-0.07
-1.49
-2.61
-3.24
-3.31
-2.89
-2.15
-1.35
-0.72
-0.44
-0.53
-0.89
-1.35
-1.74
-1.94
-1.93
-1.77
-1.53
-1.30
-1.13
-1.00
-0.84
-0.58
-0.15
0.49
1.32
2.25
3.15
3.88
4.31
4.36
4.03
3.40
2.66
1.99
1.57
1.48
1.69
2.05
2.38
2.53
2.41
2.06
1.57
1.06
0.57
0.12
-0.37
-0.97
-1.73
-2.62
-3.56
-4.40
-4.98
-5.21
-5.05
-4.60
-4.01
-3.41
-2.88
-2.41
-1.93
-1.41
-0.86
-0.37
-0.00
0.24
0.45
0.71
1.05
1.41
1.59
1.43
0.83
-0.12
-1.21
-2.15
-2.70
-2.71
-2.20
-1.33
-0.38
0.38
0.77
0.75
0.43
-0.03
-0.46
-0.79
-0.97
-1.02
-0.92
-0.69
-0.33
0.09
0.52
0.94
1.40
1.98
2.75
3.62
4.41
4.90
4.95
4.63
4.17
3.85
3.85
4.15
4.55
4.80
4.67
4.08
3.07
1.77
0.31
-1.20
-2.63
-3.86
-4.80
-5.42
-5.74
-5.84
-5.84
-5.84
-5.86
-5.89
-5.88
-5.72
-5.32
-4.63
-3.70
-2.65
-1.65
-0.83
-0.23
0.17
0.48
0.76
1.04
1.25
1.26
0.89
0.05
-1.27
-2.87
-4.42
-5.50
-5.82
-5.28
-4.09
-2.63
-1.29
-0.31
0.32
0.80
1.35
2.10
3.00
3.87
4.52
4.83
4.83
4.70
4.70
5.00
5.71
6.74
7.90
8.94
9.69
10.06
10.03
9.68
9.06
8.25
7.32
6.36
5.51
4.89
4.55
4.41
4.26
3.88
3.07
1.81
0.22
-1.46
-3.00
-4.26
-5.25
-6.05
-6.76
-7.37
-7.81
-7.99
-7.87
-7.55
-7.19
-6.95
-6.87
-6.86
-6.75
-6.37
-5.65
-4.67
-3.57
-2.49
-1.57
-0.85
-0.33
0.00
0.17
0.16
-0.06
-0.48
-1.04
-1.62
-2.04
-2.17
-1.99
-1.61
-1.23
-1.06
-1.17
-1.51
-1.87
-2.09
-2.07
-1.85
-1.58
-1.41
-1.43
-1.65
-2.01
-2.35
-2.52
-2.37
-1.80
-0.84
0.40
1.70
2.87
3.76
4.35
4.67
4.77
4.65
4.33
3.88
3.43
3.15
3.15
3.46
3.95
4.42
4.69
4.60
4.12
3.28
2.16
0.89
-0.38
-1.52
-2.40
-2.99
-3.34
-3.56
-3.77
-4.01
-4.28
-4.54
-4.75
-4.92
-5.04
-5.05
-4.87
-4.42
-3.65
-2.67
-1.62
-0.67
0.09
0.65
1.05
1.34
1.55
1.64
1.61
1.45
1.22
0.96
0.76
0.69
0.79
1.00
1.24
1.32
1.11
0.58
-0.14
-0.81
-1.21
-1.26
-1.07
-0.86
-0.83
-1.08
-1.56
-2.13
-2.67
-3.09
-3.32
-3.31
-2.99
-2.34
-1.40
-0.31
0.78
1.74
2.59
3.39
4.27
5.24
6.23
7.06
7.56
7.64
7.35
6.85
6.33
5.89
5.55
5.21
4.71
3.98
3.04
2.02
1.05
0.20
-0.60
-1.47
-2.51
-3.67
-4.79
-5.60
-5.88
-5.57
-4.81
-3.89
-3.13
-2.74
-2.71
-2.92
-3.15
-3.24
-3.15
-2.95
-2.79
-2.72
-2.69
-2.50
-1.98
-1.09
0.06
1.18
2.00
2.39
2.39
2.14
1.82
1.49
1.14
0.71
0.16
-0.48
-1.16
-1.83
-2.48
-3.15
-3.82
-4.45
-4.98
-5.37
-5.67
-6.00
-6.50
-7.30
-8.41
-9.78
-11.28
-12.73
-14.00
-14.96
-15.59
-15.98
-16.25
-16.55
-16.93
-17.27
-17.31
-16.70
-15.19
-12.70
-9.41
-5.66
-1.80
1.96
5.54
9.03
12.47
15.88
19.14
22.13
24.82
27.23
29.49
31.66
33.69
35.42
36.65
37.19
36.98
36.11
34.78
33.24
31.73
30.39
29.26
28.25
27.26
26.14
24.83
23.29
21.54
19.66
17.78
16.10
14.77
13.92
13.52
13.41
13.33
12.97
12.14
10.81
9.14
7.51
6.35
6.02
6.63
7.87
9.10
9.52
8.54
6.01
2.37
-1.63
-5.28
-8.22
-10.54
-12.67
-15.00
-17.70
-20.67
-23.65
-26.46
-29.20
-32.17
-35.66
-39.64
-43.51
-46.20
-46.48
-43.49
-37.14
-28.18
-17.91
-7.65
1.78
10.17
17.69
24.45
30.08
33.78
34.79
32.90
28.85
24.06
20.03
17.63
16.74
16.48
15.74
13.92
11.22
8.40
6.30
5.31
5.20
5.34
5.13
4.36
3.31
2.45
2.16
2.41
2.85
2.97
2.39
1.12
-0.53
-2.11
-3.25
-3.88
-4.20
-4.55
-5.17
-6.06
-7.00
-7.72
-8.03
-7.95
-7.68
-7.42
-7.33
-7.41
-7.61
-7.89
-8.31
-8.96
-9.94
-11.22
-12.68
-14.08
-15.24
-16.01
-16.32
-16.15
-15.55
-14.59
-13.43
-12.29
-11.39
-10.91
-10.89
-11.30
-12.08
-13.18
-14.59
-16.26
-18.05
-19.67
-20.84
-21.29
-20.90
-19.66
-17.73
-15.38
-13.01
-11.10
-10.11
-10.27
-11.48
-13.32
-15.15
-16.37
-16.63
-15.85
-14.21
-11.94
-9.29
-6.44
-3.51
-0.56
2.50
5.87
9.79
14.38
19.50
24.73
29.55
33.53
36.46
38.46
39.80
40.75
41.47
41.91
41.90
41.23
39.72
37.30
34.05
30.13
25.73
21.00
16.06
11.02
6.02
1.35
-2.70
-5.87
-8.11
-9.66
-10.96
-12.50
-14.64
-17.42
-20.62
-23.81
-26.51
-28.42
-29.46
-29.75
-29.57
-29.20
-28.82
-28.48
-28.16
-27.81
-27.49
-27.29
-27.32
-27.59
-28.05
-28.55
-29.04
-29.59
-30.36
-31.50
-33.02
-34.77
-36.46
-37.80
-38.51
-38.40
-37.31
-35.15
-31.89
-27.67
-22.83
-17.89
-13.41
-9.81
-7.22
-5.47
-4.14
-2.74
-0.87
1.68
4.82
8.29
11.71
14.71
17.00
18.43
19.03
18.95
18.46
17.86
17.40
17.23
17.31
17.47
17.48
17.18
16.50
15.49
14.28
13.04
11.94
11.19
10.97
11.39
12.45
13.97
15.66
17.18
18.28
18.84
18.86
18.40
17.57
16.48
15.20
13.84
12.48
11.22
10.14
9.31
8.79
8.59
8.71
9.07
9.57
10.09
10.56
10.94
11.20
11.34
11.38
11.32
11.23
11.15
11.15
11.26
11.44
11.64
11.81
11.92
12.01
12.18
12.57
13.27
14.24
15.30
16.09
16.16
15.13
12.83
9.39
5.18
0.68
-3.73
-7.78
-11.29
-14.07
-15.87
-16.51
-16.03
-14.80
-13.42
-12.56
-12.61
-13.51
-14.84
-16.05
-16.74
-16.85
-16.66
-16.57
-16.86
-17.58
-18.50
-19.32
-19.78
-19.86
-19.77
-19.86
-20.46
-21.75
-23.65
-25.82
-27.85
-29.34
-30.09
-30.14
-29.72
-29.18
-28.82
-28.79
-29.04
-29.31
-29.23
-28.45
-26.76
-24.24
-21.24
-18.27
-15.82
-14.14
-13.10
-12.28
-11.21
-9.54
-7.27
-4.70
-2.26
-0.23
1.34
2.63
3.87
5.19
6.55
7.78
8.73
9.40
9.96
10.62
11.54
12.70
13.89
14.82
15.26
15.15
14.59
13.84
13.14
12.67
12.47
12.43
12.41
12.23
11.81
11.14
10.30
9.40
8.56
7.84
7.21
6.59
5.88
5.03
4.08
3.18
2.46
2.01
1.78
1.68
1.59
1.50
1.50
1.72
2.28
3.13
4.14
5.10
5.86
6.35
6.61
6.75
6.85
6.95
7.03
7.03
6.90
6.70
6.51
6.43
6.54
6.82
7.22
7.63
8.01
8.34
8.66
9.01
9.36
9.61
9.68
9.57
9.36
9.27
9.50
10.12
11.08
12.15
13.08
13.71
14.04
14.23
14.51
15.16
16.37
18.25
20.76
23.76
26.99
30.10
32.77
34.79
36.06
36.69
36.85
36.73
36.40
35.79
34.65
32.66
29.59
25.43
20.41
15.02
9.78
5.07
0.98
-2.69
-6.27
-10.00
-13.85
-17.49
-20.45
-22.29
-22.81
-22.14
-20.65
-18.78
-16.90
-15.19
-13.64
-12.13
-10.55
-8.83
-6.91
-4.69
-1.96
1.57
6.10
11.62
17.75
23.87
29.32
33.63
36.74
38.90
40.45
41.51
41.81
40.81
37.92
32.86
25.82
17.40
8.39
-0.53
-8.95
-16.75
-23.94
-30.48
-36.16
-40.65
-43.65
-45.10
-45.28
-44.72
-43.98
-43.47
-43.27
-43.22
-43.09
-42.78
-42.37
-42.07
-42.08
-42.37
-42.73
-42.84
-42.37
-41.13
-39.07
-36.27
-32.90
-29.24
-25.63
-22.45
-20.00
-18.41
-17.60
-17.27
-16.99
-16.37
-15.10
-13.11
-10.49
-7.51
-4.49
-1.76
0.42
1.94
2.81
3.13
3.07
2.77
2.38
2.05
1.96
2.33
3.29
4.80
6.58
8.20
9.22
9.38
8.79
7.82
6.99
6.66
6.91
7.49
8.04
8.27
8.13
7.75
7.33
6.99
6.71
6.33
5.73
4.94
4.11
3.46
3.16
3.26
3.66
4.22
4.77
5.25
5.61
5.83
5.91
5.82
5.58
5.26
4.92
4.59
4.23
3.79
3.28
2.84
2.70
3.11
4.17
5.68
7.13
7.87
7.39
5.50
2.49
-0.95
-4.01
-6.00
-6.61
-5.96
-4.50
-2.83
-1.42
-0.52
-0.06
0.20
0.54
1.05
1.67
2.11
2.12
1.56
0.56
-0.55
-1.39
-1.70
-1.45
-0.82
-0.09
0.49
0.80
0.85
0.74
0.60
0.51
0.52
0.60
0.66
0.62
0.41
0.06
-0.29
-0.43
-0.16
0.55
1.56
2.50
3.00
2.79
1.86
0.52
-0.80
-1.66
-1.86
-1.46
-0.82
-0.34
-0.27
-0.63
-1.13
-1.41
-1.16
-0.32
0.89
2.07
2.83
2.93
2.39
1.40
0.25
-0.83
-1.65
-2.14
-2.27
-2.10
-1.69
-1.17
-0.70
-0.46
-0.52
-0.79
-1.13
-1.32
-1.22
-0.82
-0.22
0.43
1.01
1.46
1.76
1.90
1.88
1.71
1.50
1.44
1.79
2.67
4.09
5.82
7.55
9.02
10.22
11.38
12.90
15.15
18.33
22.34
26.80
31.07
34.47
36.35
36.30
34.29
30.71
26.31
21.98
18.43
15.98
14.54
13.67
12.89
11.87
10.54
8.98
7.32
5.63
3.84
1.92
-0.12
-2.14
-3.92
-5.24
-6.05
-6.41
-6.54
-6.70
-7.13
-7.97
-9.22
-10.79
-12.48
-14.06
-15.27
-15.93
-15.95
-15.34
-14.25
-12.87
-11.35
-9.76
-8.13
-6.45
-4.85
-3.46
-2.45
-1.85
-1.58
-1.47
-1.32
-1.07
-0.77
-0.49
-0.32
-0.27
-0.34
-0.54
-0.91
-1.44
-2.07
-2.62
-2.91
-2.87
-2.57
-2.23
-2.06
-2.18
-2.56
-3.10
-3.63
-4.06
-4.31
-4.31
-3.98
-3.26
-2.21
-1.03
0.00
0.61
0.67
0.27
-0.31
-0.78
-0.90
-0.65
-0.14
0.44
0.91
1.13
1.07
0.72
0.13
-0.58
-1.27
-1.79
-2.04
-2.01
-1.81
-1.54
-1.32
-1.19
-1.14
-1.11
-1.06
-0.96
-0.84
-0.75
-0.76
-0.99
-1.51
-2.26
-3.05
-3.61
-3.68
-3.19
-2.29
-1.28
-0.48
-0.02
0.14
0.16
0.19
0.25
0.26
0.12
-0.19
-0.58
-0.88
-0.93
-0.68
-0.20
0.37
0.84
1.10
1.07
0.76
0.23
-0.42
-1.06
-1.56
-1.82
-1.81
-1.63
-1.46
-1.52
-1.95
-2.76
-3.82
-4.89
-5.78
-6.37
-6.66
-6.70
-6.53
-6.13
-5.52
-4.75
-3.91
-3.16
-2.61
-2.28
-2.13
-2.12
-2.21
-2.40
-2.68
-2.99
-3.28
-3.47
-3.54
-3.50
-3.36
-3.11
-2.72
-2.20
-1.64
-1.24
-1.16
-1.46
-2.03
-2.62
-3.02
-3.10
-2.94
-2.72
-2.64
-2.81
-3.26
-3.95
-4.76
-5.58
-6.25
-6.60
-6.51
-5.94
-4.94
-3.67
-2.29
-0.96
0.18
1.07
1.67
1.96
1.99
1.86
1.71
1.62
1.59
1.58
1.48
1.27
1.02
0.86
0.89
1.15
1.53
1.90
2.10
2.12
2.01
1.88
1.83
1.88
1.98
2.05
2.04
1.91
1.63
1.17
0.52
-0.26
-1.08
-1.78
-2.22
-2.29
-1.95
-1.25
-0.30
0.75
1.73
2.50
2.95
3.10
3.02
2.82
2.59
2.36
2.14
1.91
1.71
1.59
1.60
1.73
1.91
2.07
2.09
1.92
1.61
1.27
1.03
0.98
1.16
1.48
1.78
1.90
1.76
1.40
0.92
0.45
0.06
-0.24
-0.49
-0.77
-1.11
-1.50
-1.96
-2.50
-3.13
-3.77
-4.29
-4.50
-4.27
-3.59
-2.58
-1.46
-0.44
0.36
0.93
1.33
1.66
1.98
2.30
2.61
2.88
3.12
3.26
3.24
2.97
2.47
1.85
1.33
1.09
1.24
1.70
2.25
2.67
2.80
2.61
2.18
1.63
1.05
0.46
-0.12
-0.61
-0.95
-1.07
-1.00
-0.89
-0.96
-1.39
-2.26
-3.44
-4.64
-5.52
-5.82
-5.43
-4.42
-2.99
-1.35
0.32
1.84
3.07
3.84
4.05
3.69
2.86
1.81
0.83
0.15
-0.12
-0.03
0.27
0.63
0.89
0.99
0.92
0.77
0.63
0.57
0.58
0.60
0.54
0.37
0.14
-0.02
-0.05
0.08
0.24
0.28
0.06
-0.41
-1.02
-1.55
-1.81
-1.72
-1.27
-0.57
0.23
0.98
1.60
2.08
2.48
2.90
3.34
3.79
4.16
4.41
4.53
4.59
4.66
4.72
4.72
4.58
4.29
3.93
3.59
3.34
3.18
3.02
2.77
2.42
2.01
1.62
1.30
1.07
0.89
0.77
0.73
0.76
0.83
0.87
0.77
0.49
0.02
-0.55
-1.08
-1.47
-1.66
-1.60
-1.30
-0.80
-0.12
0.68
1.57
2.50
3.39
4.18
4.81
5.28
5.63
5.95
6.28
6.65
7.02
7.33
7.53
7.62
7.63
7.60
7.50
7.28
6.89
6.32
5.63
4.93
4.34
3.95
3.80
3.89
4.18
4.61
5.07
5.45
5.66
5.63
5.38
5.00
4.64
4.45
4.46
4.59
4.64
4.42
3.81
2.87
1.77
0.73
-0.17
-0.98
-1.87
-3.02
-4.45
-6.04
-7.57
-8.82
-9.67
-10.13
-10.25
-10.11
-9.78
-9.27
-8.60
-7.79
-6.90
-6.00
-5.16
-4.43
-3.85
-3.37
-2.91
-2.39
-1.79
-1.12
-0.51
-0.04
0.26
0.43
0.59
0.80
1.12
1.51
1.93
2.37
2.83
3.36
3.98
4.65
5.27
5.76
6.05
6.19
6.26
6.43
6.76
7.24
7.79
8.24
8.51
8.57
8.44
8.16
7.64
6.75
5.32
3.32
0.88
-1.68
-3.98
-5.73
-6.81
-7.32
-7.49
-7.50
-7.46
-7.35
-7.12
-6.74
-6.30
-5.93
-5.78
-5.91
-6.22
-6.54
-6.67
-6.49
-6.03
-5.42
-4.77
-4.13
-3.40
-2.45
-1.12
0.58
2.51
4.42
5.98
6.98
7.29
6.93
6.03
4.78
3.41
2.12
1.03
0.14
-0.66
-1.51
-2.53
-3.73
-4.93
-5.93
-6.50
-6.56
-6.19
-5.60
-5.01
-4.56
-4.29
-4.09
-3.88
-3.62
-3.38
-3.29
-3.45
-3.88
-4.43
-4.94
-5.27
-5.40
-5.38
-5.33
-5.28
-5.23
-5.15
-5.08
-5.11
-5.38
-5.90
-6.54
-7.02
-7.10
-6.67
-5.85
-4.92
-4.17
-3.76
-3.67
-3.72
-3.69
-3.38
-2.70
-1.70
-0.53
0.62
1.57
2.21
2.53
2.57
2.40
2.07
1.59
1.01
0.47
0.14
0.17
0.59
1.22
1.77
1.97
1.69
1.06
0.35
-0.19
-0.39
-0.25
0.12
0.61
1.13
1.66
2.18
2.64
3.02
3.28
3.44
3.51
3.53
3.52
3.46
3.37
3.24
3.11
3.01
2.99
3.06
3.21
3.45
3.75
4.11
4.45
4.69
4.74
4.55
4.10
3.52
2.94
2.52
2.34
2.37
2.51
2.63
2.59
2.35
1.90
1.31
0.67
0.10
-0.32
-0.55
-0.61
-0.55
-0.48
-0.48
-0.61
-0.88
-1.25
-1.64
-1.95
-2.09
-1.99
-1.71
-1.39
-1.21
-1.37
-1.95
-2.87
-3.95
-4.94
-5.66
-6.09
-6.31
-6.46
-6.67
-6.93
-7.17
-7.26
-7.10
-6.71
-6.18
-5.59
-5.00
-4.40
-3.75
-3.04
-2.33
-1.70
-1.26
-1.03
-0.96
-0.93
-0.85
-0.65
-0.34
0.02
0.35
0.59
0.70
0.69
0.58
0.45
0.33
0.28
0.30
0.35
0.37
0.31
0.22
0.19
0.39
0.90
1.73
2.78
3.84
4.72
5.26
5.43
5.23
4.73
4.03
3.23
2.46
1.88
1.61
1.65
1.88
2.08
2.05
1.68
1.03
0.29
-0.32
-0.68
-0.83
-0.92
-1.14
-1.57
-2.12
-2.58
-2.73
-2.47
-1.87
-1.15
-0.54
-0.19
-0.09
-0.17
-0.33
-0.52
-0.75
-1.04
-1.35
-1.63
-1.80
-1.82
-1.71
-1.54
-1.39
-1.30
-1.26
-1.21
-1.09
-0.88
-0.56
-0.14
0.31
0.76
1.14
1.42
1.60
1.74
1.89
2.13
2.48
2.91
3.38
3.81
4.12
4.22
4.07
3.64
3.00
2.29
1.67
1.24
1.04
1.00
0.98
0.87
0.63
0.30
-0.05
-0.36
-0.66
-0.99
-1.39
-1.87
-2.34
-2.68
-2.82
-2.73
-2.43
-1.97
-1.44
-0.89
-0.42
-0.12
-0.03
-0.14
-0.34
-0.47
-0.44
-0.25
-0.01
0.15
0.16
0.03
-0.15
-0.32
-0.46
-0.53
-0.50
-0.29
0.19
0.93
1.83
2.68
3.31
3.63
3.65
3.46
3.14
2.76
2.34
1.88
1.45
1.10
0.85
0.69
0.57
0.41
0.15
-0.26
-0.81
-1.46
-2.08
-2.50
-2.57
-2.24
-1.61
-0.92
-0.45
-0.35
-0.65
-1.18
-1.70
-2.02
-2.06
-1.85
-1.50
-1.12
-0.79
-0.56
-0.47
-0.57
-0.86
-1.30
-1.74
-2.02
-1.99
-1.63
-1.03
-0.38
0.14
0.43
0.49
0.38
0.19
0.01
-0.11
-0.09
0.09
0.44
0.89
1.31
1.59
1.64
1.46
1.15
0.84
0.62
0.55
0.60
0.69
0.77
0.82
0.82
0.82
0.81
0.77
0.69
0.53
0.30
0.01
-0.28
-0.52
-0.70
-0.81
-0.87
-0.92
-0.97
-1.05
-1.12
-1.19
-1.21
-1.18
-1.15
-1.14
-1.15
-1.15
-1.06
-0.82
-0.39
0.16
0.72
1.15
1.35
1.32
1.10
0.77
0.42
0.09
-0.20
-0.43
-0.63
-0.79
-0.89
-0.93
-0.92
-0.86
-0.80
-0.82
-0.97
-1.27
-1.68
-2.09
-2.35
-2.33
-1.96
-1.29
-0.45
0.41
1.15
1.75
2.22
2.58
2.82
2.93
2.86
2.63
2.34
2.10
2.04
2.21
2.58
3.09
3.60
4.04
4.32
4.38
4.23
3.91
3.52
3.17
2.96
2.90
2.95
3.00
2.99
2.89
2.73
2.59
2.52
2.53
2.54
2.43
2.07
1.41
0.49
-0.54
-1.48
-2.17
-2.53
-2.63
-2.61
-2.65
-2.84
-3.16
-3.55
-3.87
-4.04
-4.02
-3.81
-3.47
-3.03
-2.55
-2.04
-1.53
-1.01
-0.53
-0.13
0.10
0.14
-0.02
-0.29
-0.58
-0.82
-1.00
-1.16
-1.35
-1.57
-1.76
-1.80
-1.62
-1.22
-0.69
-0.19
0.16
0.30
0.28
0.19
0.14
0.17
0.25
0.32
0.33
0.23
0.04
-0.20
-0.43
-0.61
-0.72
-0.78
-0.81
-0.86
-0.93
-1.01
-1.00
-0.82
-0.42
0.12
0.65
0.96
0.91
0.49
-0.14
-0.71
-1.02
-0.96
-0.61
-0.14
0.28
0.55
0.69
0.75
0.77
0.72
0.58
0.35
0.09
-0.07
-0.04
0.21
0.58
0.94
1.21
1.38
1.50
1.64
1.80
1.91
1.83
1.43
0.68
-0.35
-1.47
-2.44
-3.09
-3.32
-3.15
-2.68
-2.07
-1.44
-0.87
-0.43
-0.13
0.02
0.05
0.01
-0.04
-0.00
0.15
0.39
0.67
0.88
0.97
0.94
0.84
0.76
0.79
0.96
1.27
1.67
2.12
2.55
2.91
3.09
3.02
2.63
1.91
0.93
-0.15
-1.18
-1.99
-2.51
-2.69
-2.56
-2.16
-1.58
-0.94
-0.36
0.01
0.09
-0.09
-0.42
-0.70
-0.78
-0.54
0.03
0.85
1.77
2.58
3.06
3.04
2.44
1.32
-0.10
-1.57
-2.87
-3.89
-4.61
-5.06
-5.23
-5.05
-4.50
-3.66
-2.71
-1.88
-1.27
-0.89
-0.61
-0.29
0.13
0.66
1.29
2.05
2.93
3.87
4.68
5.06
4.77
3.70
1.97
-0.12
-2.19
-3.91
-5.06
-5.54
-5.35
-4.64
-3.61
-2.52
-1.55
-0.78
-0.13
0.58
1.47
2.55
3.68
4.67
5.33
5.63
5.59
5.33
4.86
4.11
2.99
1.42
-0.54
-2.69
-4.77
-6.51
-7.74
-8.37
-8.42
-7.96
-7.10
-5.96
-4.65
-3.30
-1.96
-0.64
0.71
2.12
3.62
5.17
6.63
7.83
8.53
8.52
7.69
6.12
4.15
2.31
1.18
1.16
2.34
4.45
6.97
9.38
11.35
12.73
13.56
13.98
14.07
13.93
13.62
13.14
12.39
11.18
9.31
6.70
3.56
0.40
-2.14
-3.57
-3.74
-2.99
-2.00
-1.48
-1.93
-3.39
-5.48
-7.58
-9.10
-9.63
-9.09
-7.63
-5.53
-3.05
-0.32
2.65
5.83
9.04
11.91
13.90
14.48
13.37
10.65
6.79
2.51
-1.53
-4.87
-7.42
-9.40
-11.10
-12.73
-14.29
-15.63
-16.49
-16.72
-16.25
-15.13
-13.43
-11.21
-8.51
-5.34
-1.79
2.01
5.82
9.28
11.97
13.51
13.64
12.33
9.90
6.81
3.62
0.76
-1.39
-2.50
-2.14
0.01
3.95
9.07
14.10
17.50
18.02
15.29
10.04
3.66
-2.41
-7.36
-11.18
-14.34
-17.22
-19.60
-20.71
-19.63
-15.95
-10.10
-3.37
2.64
6.60
7.91
6.81
4.05
0.53
-3.13
-6.67
-10.20
-13.91
-17.83
-21.66
-24.79
-26.49
-26.20
-23.87
-19.96
-15.32
-10.75
-6.72
-3.24
-0.04
3.04
5.86
7.90
8.62
7.81
5.84
3.55
1.89
1.50
2.45
4.27
6.22
7.69
8.33
8.13
7.35
6.28
5.25
4.55
4.45
5.10
6.51
8.44
10.49
12.22
13.30
13.65
13.42
12.85
12.12
11.32
10.33
9.02
7.30
5.17
2.74
0.10
-2.71
-5.64
-8.63
-11.51
-14.05
-15.95
-17.00
-17.14
-16.46
-15.23
-13.76
-12.36
-11.23
-10.48
-10.08
-9.91
-9.76
-9.43
-8.77
-7.74
-6.41
-4.94
-3.51
-2.25
-1.24
-0.53
-0.11
0.06
0.05
-0.03
-0.09
-0.04
0.10
0.26
0.34
0.30
0.15
-0.03
-0.10
0.02
0.36
0.89
1.52
2.12
2.60
2.88
2.94
2.79
2.52
2.22
1.99
1.89
1.99
2.26
2.66
3.07
3.38
3.52
3.43
3.15
2.74
2.30
1.90
1.61
1.47
1.53
1.83
2.32
2.86
3.26
3.32
2.99
2.33
1.58
0.99
0.74
0.87
1.24
1.65
1.86
1.77
1.38
0.80
0.15
-0.44
-0.93
-1.29
-1.58
-1.80
-1.95
-1.97
-1.81
-1.44
-0.90
-0.30
0.21
0.50
0.49
0.23
-0.11
-0.32
-0.23
0.13
0.60
0.87
0.75
0.22
-0.50
-1.08
-1.20
-0.83
-0.14
0.55
0.97
1.00
0.78
0.49
0.32
0.29
0.31
0.24
0.01
-0.33
-0.65
-0.80
-0.73
-0.52
-0.33
-0.35
-0.65
-1.19
-1.82
-2.36
-2.75
-3.01
-3.27
-3.65
-4.18
-4.74
-5.16
-5.28
-5.04
-4.53
-3.92
-3.41
-3.12
-3.03
-3.07
-3.11
-3.10
-2.98
-2.76
-2.41
-1.93
-1.35
-0.71
-0.13
0.29
0.49
0.53
0.52
0.64
0.98
1.57
2.29
2.96
3.37
3.43
3.17
2.72
2.29
2.04
2.05
2.27
2.59
2.88
3.05
3.07
3.00
2.91
2.87
2.91
3.02
3.13
3.16
3.02
2.64
2.04
1.28
0.50
-0.18
-0.67
-0.90
-0.92
-0.81
-0.68
-0.66
-0.83
-1.19
-1.71
-2.29
-2.86
-3.42
-3.98
-4.59
-5.24
-5.87
-6.37
-6.64
-6.61
-6.28
-5.70
-4.96
-4.11
-3.20
-2.29
-1.46
-0.76
-0.23
0.17
0.54
0.96
1.49
2.07
2.62
2.98
3.06
2.89
2.57
2.29
2.23
2.46
2.91
3.43
3.84
4.01
3.96
3.82
3.72
3.73
3.84
3.93
3.90
3.73
3.42
3.08
2.78
2.59
2.48
2.41
2.27
1.96
1.44
0.78
0.12
-0.36
-0.54
-0.44
-0.20
-0.04
-0.12
-0.49
-1.07
-1.72
-2.32
-2.83
-3.23
-3.55
-3.83
-4.12
-4.44
-4.87
-5.45
-6.22
-7.14
-8.14
-9.14
-9.99
-10.58
-10.80
-10.57
-9.85
-8.74
-7.39
-6.01
-4.80
-3.87
-3.24
-2.84
-2.53
-2.20
-1.80
-1.31
-0.72
-0.08
0.58
1.18
1.71
2.15
2.54
2.96
3.45
4.03
4.64
5.20
5.68
6.08
6.46
6.85
7.19
7.42
7.47
7.37
7.23
7.16
7.18
7.25
7.22
6.99
6.57
6.07
5.62
5.31
5.11
4.95
4.72
4.38
3.92
3.35
2.66
1.87
0.99
0.09
-0.74
-1.40
-1.86
-2.20
-2.58
-3.18
-4.13
-5.44
-6.93
-8.31
-9.23
-9.43
-8.82
-7.53
-5.83
-4.03
-2.37
-0.95
0.24
1.26
2.16
2.92
3.53
3.98
4.30
4.53
4.67
4.75
4.76
4.73
4.71
4.76
4.89
5.09
5.33
5.59
5.82
6.00
6.06
5.94
5.61
5.10
4.48
3.89
3.44
3.16
3.01
2.90
2.70
2.36
1.85
1.24
0.60
-0.01
-0.58
-1.13
-1.75
-2.50
-3.43
-4.51
-5.65
-6.65
-7.30
-7.41
-6.90
-5.79
-4.26
-2.53
-0.82
0.76
2.18
3.37
4.25
4.68
4.60
4.06
3.28
2.57
2.21
2.28
2.70
3.23
3.63
3.79
3.71
3.51
3.36
3.35
3.48
3.67
3.80
3.79
3.62
3.40
3.26
3.26
3.37
3.39
3.13
2.52
1.68
0.87
0.34
0.12
0.03
-0.27
-1.03
-2.27
-3.79
-5.28
-6.47
-7.27
-7.75
-8.00
-8.06
-7.81
-7.09
-5.81
-4.09
-2.18
-0.38
1.08
2.17
2.99
3.70
4.37
4.96
5.35
5.44
5.32
5.18
5.26
5.64
6.27
6.90
7.30
7.35
7.12
6.80
6.59
6.60
6.77
6.95
6.95
6.67
6.10
5.32
4.49
3.74
3.20
2.96
3.01
3.27
3.57
3.71
3.58
3.15
2.53
1.86
1.29
0.86
0.56
0.33
0.13
-0.05
-0.17
-0.22
-0.20
-0.14
-0.10
-0.10
-0.18
-0.32
-0.53
-0.79
-1.06
-1.29
-1.48
-1.68
-1.97
-2.41
-2.99
-3.67
-4.35
-5.00
-5.66
-6.42
-7.38
-8.49
-9.62
-10.50
-10.92
-10.75
-9.99
-8.77
-7.25
-5.59
-3.90
-2.28
-0.84
0.33
1.17
1.70
1.99
2.13
2.21
2.26
2.32
2.41
2.60
2.97
3.53
4.25
4.98
5.60
6.00
6.17
6.17
6.12
6.05
6.00
5.97
5.99
6.11
6.35
6.67
6.94
7.01
6.79
6.27
5.57
4.85
4.25
3.84
3.61
3.54
3.59
3.70
3.79
3.78
3.62
3.32
2.99
2.72
2.63
2.69
2.82
2.86
2.65
2.14
1.34
0.38
-0.61
-1.50
-2.21
-2.76
-3.19
-3.58
-4.03
-4.59
-5.27
-6.00
-6.70
-7.23
-7.45
-7.20
-6.44
-5.17
-3.58
-1.90
-0.44
0.58
1.09
1.19
1.09
0.98
0.96
0.99
0.97
0.88
0.79
0.87
1.29
2.05
3.00
3.93
4.63
5.01
5.15
5.18
5.19
5.18
5.06
4.73
4.20
3.59
3.11
2.94
3.15
3.63
4.19
4.59
4.66
4.39
3.87
3.23
2.57
1.99
1.49
1.10
0.86
0.76
0.80
0.89
0.93
0.81
0.48
-0.06
-0.77
-1.55
-2.28
-2.82
-3.01
-2.78
-2.09
-1.04
0.20
1.43
2.51
3.37
4.00
4.46
4.75
4.86
4.77
4.48
4.03
3.47
2.89
2.30
1.70
1.06
0.35
-0.42
-1.21
-1.95
-2.55
-2.96
-3.21
-3.34
-3.42
-3.46
-3.43
-3.28
-2.99
-2.63
-2.37
-2.38
-2.76
-3.42
-4.14
-4.68
-4.90
-4.86
-4.75
-4.77
-5.02
-5.40
-5.72
-5.80
-5.64
-5.36
-5.15
-5.19
-5.48
-5.95
-6.48
-7.02
-7.55
-8.07
-8.50
-8.72
-8.59
-8.04
-7.13
-6.00
-4.83
-3.75
-2.80
-1.95
-1.18
-0.49
0.06
0.44
0.66
0.80
0.94
1.17
1.51
1.92
2.33
2.69
2.98
3.20
3.35
3.43
3.46
3.45
3.44
3.46
3.49
3.49
3.41
3.25
3.06
2.94
2.96
3.11
3.27
3.30
3.06
2.57
1.95
1.40
1.07
0.99
1.09
1.20
1.23
1.14
0.97
0.78
0.60
0.39
0.11
-0.26
-0.67
-1.01
-1.23
-1.31
-1.40
-1.64
-2.15
-2.87
-3.67
-4.33
-4.71
-4.86
-4.94
-5.13
-5.52
-6.00
-6.37
-6.39
-5.96
-5.10
-3.99
-2.81
-1.70
-0.73
0.12
0.84
1.43
1.88
2.20
2.39
2.48
2.51
2.51
2.58
2.78
3.16
3.64
4.10
4.34
4.28
3.95
3.50
3.16
3.07
3.28
3.70
4.15
4.46
4.52
4.35
3.99
3.57
3.13
2.73
2.35
1.98
1.63
1.31
1.04
0.84
0.71
0.63
0.60
0.62
0.69
0.80
0.92
0.97
0.86
0.54
0.05
-0.52
-1.07
-1.48
-1.72
-1.85
-2.02
-2.35
-2.91
-3.65
-4.42
-5.06
-5.45
-5.59
-5.55
-5.47
-5.43
-5.41
-5.28
-4.89
-4.13
-3.04
-1.83
-0.77
-0.10
0.10
-0.01
-0.19
-0.21
0.05
0.48
0.89
1.13
1.15
1.10
1.17
1.51
2.10
2.75
3.22
3.31
3.00
2.42
1.84
1.45
1.35
1.49
1.68
1.74
1.60
1.28
0.89
0.57
0.36
0.21
0.01
-0.34
-0.86
-1.45
-1.96
-2.24
-2.23
-2.01
-1.73
-1.61
-1.80
-2.35
-3.19
-4.15
-5.04
-5.70
-6.02
-5.98
-5.56
-4.76
-3.59
-2.12
-0.52
0.98
2.14
2.80
2.96
2.77
2.47
2.25
2.19
2.27
2.37
2.40
2.32
2.16
2.01
1.90
1.85
1.87
1.93
2.03
2.16
2.29
2.39
2.38
2.18
1.78
1.24
0.68
0.21
-0.14
-0.40
-0.71
-1.16
-1.76
-2.44
-3.08
-3.57
-3.89
-4.07
-4.17
-4.22
-4.16
-3.95
-3.50
-2.82
-1.94
-0.96
0.01
0.86
1.51
1.92
2.08
2.02
1.81
1.51
1.22
1.00
0.89
0.87
0.89
0.86
0.66
0.22
-0.48
-1.35
-2.26
-3.00
-3.45
-3.53
-3.33
-3.03
-2.85
-2.92
-3.28
-3.81
-4.30
-4.61
-4.69
-4.60
-4.48
-4.43
-4.50
-4.67
-4.93
-5.28
-5.77
-6.40
-7.08
-7.58
-7.61
-7.00
-5.73
-4.02
-2.25
-0.80
0.10
0.48
0.57
0.68
1.01
1.62
2.36
3.02
3.44
3.62
3.68
3.75
3.91
4.15
4.32
4.33
4.17
3.95
3.83
3.93
4.25
4.67
5.01
5.10
4.92
4.53
4.06
3.66
3.41
3.33
3.40
3.55
3.74
3.89
3.97
3.93
3.79
3.57
3.28
2.93
2.52
2.06
1.59
1.20
0.96
0.91
0.96
0.98
0.84
0.47
-0.05
-0.60
-1.01
-1.21
-1.22
-1.20
-1.34
-1.78
-2.56
-3.56
-4.64
-5.66
-6.57
-7.38
-8.09
-8.62
-8.80
-8.47
-7.59
-6.30
-4.86
-3.55
-2.51
-1.74
-1.13
-0.58
-0.05
0.45
0.85
1.15
1.38
1.60
1.84
2.12
2.43
2.81
3.28
3.84
4.43
4.97
5.39
5.69
5.90
6.10
6.31
6.49
6.60
6.55
6.30
5.83
5.19
4.45
3.76
3.23
2.96
2.97
3.16
3.39
3.54
3.52
3.35
3.08
2.80
2.52
2.26
1.97
1.65
1.31
1.03
0.84
0.76
0.74
0.65
0.35
-0.18
-0.89
-1.56
-2.01
-2.15
-2.07
-1.96
-2.05
-2.43
-3.04
-3.76
-4.45
-5.04
-5.55
-5.95
-6.20
-6.18
-5.83
-5.14
-4.21
-3.19
-2.23
-1.39
-0.70
-0.12
0.36
0.74
1.03
1.25
1.40
1.54
1.68
1.86
2.13
2.50
3.00
3.59
4.16
4.59
4.77
4.68
4.42
4.19
4.14
4.36
4.77
5.26
5.67
5.91
5.99
5.98
5.95
5.98
6.07
6.21
6.35
6.46
6.58
6.72
6.94
7.25
7.63
8.03
8.36
8.61
8.82
9.08
9.49
10.09
10.79
11.39
11.67
11.49
10.91
10.09
9.33
8.82
8.61
8.63
8.74
8.83
8.92
9.10
9.43
9.91
10.41
10.80
10.97
10.91
10.73
10.53
10.36
10.23
10.11
9.94
9.69
9.31
8.72
7.89
6.82
5.57
4.30
3.16
2.25
1.58
1.11
0.81
0.65
0.64
0.68
0.68
0.46
-0.10
-1.01
-2.15
-3.34
-4.41
-5.33
-6.13
-6.89
-7.65
-8.37
-8.94
-9.23
-9.16
-8.77
-8.21
-7.72
-7.53
-7.78
-8.46
-9.38
-10.25
-10.80
-10.85
-10.35
-9.36
-7.94
-6.20
-4.28
-2.45
-1.14
-0.79
-1.68
-3.68
-6.24
-8.52
-9.73
-9.47
-7.86
-5.45
-2.85
-0.42
1.77
3.80
5.64
6.94
7.11
5.60
2.29
-2.40
-7.53
-12.05
-15.10
-16.30
-15.73
-13.78
-10.97
-7.82
-4.85
-2.55
-1.34
-1.42
-2.72
-4.82
-7.10
-8.91
-9.81
-9.67
-8.69
-7.23
-5.72
-4.53
-3.87
-3.79
-4.09
-4.46
-4.50
-3.91
-2.61
-0.83
0.97
2.25
2.62
1.99
0.65
-0.80
-1.65
-1.38
0.14
2.61
5.42
7.88
9.44
9.82
9.03
7.26
4.82
2.07
-0.57
-2.77
-4.29
-5.14
-5.49
-5.67
-5.91
-6.33
-6.91
-7.59
-8.36
-9.30
-10.45
-11.75
-13.05
-14.11
-14.82
-15.26
-15.63
-16.19
-17.01
-17.93
-18.61
-18.60
-17.61
-15.65
-12.98
-10.06
-7.34
-5.12
-3.49
-2.38
-1.60
-0.92
-0.11
1.07
2.79
5.07
7.77
10.52
12.90
14.58
15.38
15.39
14.86
14.15
13.58
13.38
13.66
14.42
15.59
16.99
18.41
19.61
20.42
20.82
20.90
20.90
21.00
21.26
21.50
21.30
20.09
17.27
12.44
5.51
-3.19
-12.85
-22.33
-30.39
-35.99
-38.64
-38.48
-36.25
-32.91
-29.34
-26.06
-23.30
-21.04
-19.25
-17.95
-17.15
-16.75
-16.56
-16.34
-15.95
-15.43
-15.01
-14.89
-15.15
-15.70
-16.32
-16.82
-17.12
-17.26
-17.36
-17.51
-17.72
-17.99
-18.36
-18.93
-19.89
-21.40
-23.43
-25.76
-28.01
-29.79
-30.86
-31.24
-31.06
-30.52
-29.74
-28.71
-27.42
-25.92
-24.39
-23.02
-21.90
-20.91
-19.77
-18.13
-15.74
-12.58
-8.79
-4.58
-0.15
4.41
9.00
13.51
17.74
21.49
24.57
26.90
28.48
29.33
29.49
29.02
27.96
26.38
24.44
22.34
20.32
18.58
17.27
16.41
15.95
15.76
15.71
15.69
15.60
15.36
14.89
14.09
12.94
11.51
9.95
8.47
7.23
6.28
5.57
4.98
4.36
3.59
2.60
1.37
-0.05
-1.51
-2.80
-3.71
-4.07
-3.85
-3.15
-2.20
-1.22
-0.41
0.14
0.45
0.58
0.65
0.74
0.93
1.28
1.83
2.61
3.59
4.67
5.65
6.36
6.63
6.48
6.09
5.70
5.51
5.56
5.76
5.91
5.90
5.75
5.56
5.46
5.49
5.58
5.56
5.29
4.71
3.88
2.96
2.14
1.54
1.17
0.96
0.77
0.51
0.13
-0.32
-0.78
-1.22
-1.65
-2.12
-2.63
-3.09
-3.35
-3.25
-2.74
-1.89
-0.88
0.10
0.93
1.59
2.13
2.59
2.99
3.24
3.24
2.95
2.39
1.73
1.18
0.88
0.87
1.08
1.35
1.54
1.58
1.49
1.35
1.22
1.14
1.07
1.00
0.91
0.83
0.81
0.88
1.00
1.07
0.93
0.48
-0.32
-1.34
-2.39
-3.27
-3.87
-4.23
-4.46
-4.71
-5.01
-5.24
-5.23
-4.82
-3.98
-2.82
-1.52
-0.25
0.89
1.88
2.73
3.43
3.97
4.37
4.64
4.83
4.96
4.98
4.81
4.37
3.70
2.91
2.22
1.80
1.74
1.96
2.26
2.42
2.29
1.87
1.27
0.70
0.29
0.08
0.02
0.02
-0.04
-0.25
-0.64
-1.27
-2.13
-3.16
-4.17
-4.95
-5.27
-5.01
-4.22
-3.06
-1.77
-0.55
0.51
1.42
2.24
3.00
3.68
4.21
4.54
4.61
4.44
4.10
3.66
3.22
2.86
2.66
2.68
2.92
3.32
3.73
3.99
4.01
3.76
3.33
2.86
2.43
2.04
1.62
1.06
0.35
-0.46
-1.25
-1.94
-2.57
-3.23
-4.02
-4.90
-5.67
-6.05
-5.78
-4.82
-3.32
-1.65
-0.12
1.08
1.99
2.75
3.51
4.26
4.90
5.23
5.15
4.66
3.95
3.24
2.74
2.53
2.59
2.80
3.06
3.31
3.55
3.82
4.10
4.32
4.37
4.14
3.63
2.94
2.26
1.72
1.32
0.95
0.43
-0.37
-1.41
-2.58
-3.69
-4.60
-5.30
-5.79
-6.07
-6.09
-5.71
-4.82
-3.43
-1.68
0.18
1.91
3.34
4.41
5.09
5.43
5.43
5.17
4.77
4.38
4.18
4.23
4.53
4.93
5.32
5.60
5.78
5.90
5.99
6.03
5.97
5.79
5.49
5.12
4.73
4.31
3.82
3.18
2.34
1.38
0.43
-0.38
-0.93
-1.25
-1.45
-1.72
-2.19
-2.90
-3.80
-4.71
-5.44
-5.82
-5.69
-4.99
-3.78
-2.18
-0.41
1.35
2.90
4.11
4.92
5.27
5.22
4.88
4.45
4.16
4.17
4.49
4.95
5.33
5.42
5.18
4.77
4.41
4.31
4.51
4.94
5.40
5.72
5.79
5.61
5.19
4.57
3.79
2.90
2.00
1.21
0.64
0.34
0.27
0.34
0.38
0.31
0.04
-0.40
-1.02
-1.78
-2.68
-3.69
-4.74
-5.70
-6.36
-6.56
-6.18
-5.18
-3.68
-1.88
-0.02
1.67
3.02
3.97
4.53
4.78
4.81
4.68
4.42
4.04
3.57
3.08
2.69
2.50
2.59
2.92
3.39
3.86
4.22
4.43
4.52
4.54
4.50
4.33
3.97
3.37
2.61
1.87
1.35
1.18
1.32
1.58
1.78
1.78
1.58
1.27
0.94
0.64
0.37
0.13
-0.10
-0.29
-0.49
-0.79
-1.33
-2.24
-3.51
-5.00
-6.47
-7.62
-8.22
-8.15
-7.43
-6.23
-4.76
-3.24
-1.82
-0.57
0.48
1.32
1.89
2.15
2.05
1.71
1.30
1.04
1.06
1.30
1.59
1.72
1.62
1.37
1.19
1.28
1.69
2.33
2.97
3.40
3.52
3.39
3.14
2.90
2.72
2.54
2.28
1.87
1.33
0.78
0.32
0.03
-0.12
-0.22
-0.39
-0.70
-1.13
-1.58
-1.92
-2.11
-2.15
-2.14
-2.17
-2.30
-2.56
-2.89
-3.27
-3.65
-4.01
-4.32
-4.54
-4.62
-4.44
-3.93
-3.04
-1.83
-0.45
0.88
1.90
2.45
2.50
2.18
1.67
1.17
0.74
0.41
0.14
-0.07
-0.18
-0.15
0.02
0.29
0.56
0.77
0.90
0.98
1.07
1.20
1.35
1.46
1.45
1.29
0.98
0.60
0.20
-0.20
-0.59
-1.05
-1.61
-2.22
-2.77
-3.12
-3.20
-3.05
-2.85
-2.80
-3.06
-3.66
-4.46
-5.25
-5.82
-6.04
-5.86
-5.34
-4.57
-3.63
-2.61
-1.60
-0.66
0.14
0.75
1.13
1.25
1.12
0.75
0.29
-0.13
-0.33
-0.23
0.13
0.57
0.92
1.03
0.94
0.77
0.70
0.82
1.08
1.31
1.34
1.08
0.59
0.01
-0.51
-0.92
-1.21
-1.45
-1.70
-1.97
-2.29
-2.70
-3.25
-3.94
-4.72
-5.40
-5.76
-5.60
-4.90
-3.77
-2.46
-1.22
-0.29
0.17
0.07
-0.56
-1.54
-2.54
-3.14
-2.97
-1.89
-0.01
2.33
4.72
6.84
8.53
9.76
10.53
10.86
10.78
10.36
9.73
9.09
8.53
8.05
7.54
6.84
5.88
4.69
3.43
2.26
1.27
0.38
-0.53
-1.62
-2.94
-4.38
-5.76
-6.87
-7.58
-7.87
-7.82
-7.53
-7.10
-6.58
-6.00
-5.41
-4.86
-4.44
-4.21
-4.17
-4.30
-4.51
-4.72
-4.86
-4.90
-4.85
-4.73
-4.56
-4.31
-3.95
-3.44
-2.79
-2.06
-1.37
-0.84
-0.54
-0.48
-0.64
-0.95
-1.31
-1.67
-1.97
-2.17
-2.26
-2.27
-2.29
-2.44
-2.83
-3.49
-4.35
-5.32
-6.27
-7.15
-7.94
-8.69
-9.43
-10.16
-10.79
-11.18
-11.17
-10.64
-9.53
-7.93
-6.08
-4.23
-2.63
-1.38
-0.42
0.40
1.19
1.96
2.60
2.98
3.07
3.00
2.99
3.25
3.81
4.57
5.31
5.88
6.26
6.55
6.90
7.40
8.03
8.68
9.20
9.51
9.62
9.65
9.75
10.03
10.52
11.17
11.87
12.49
12.97
13.31
13.58
13.90
14.40
15.20
16.36
17.79
19.31
20.60
21.33
21.26
20.30
18.55
16.24
13.65
11.00
8.40
5.89
3.47
1.09
-1.23
-3.48
-5.61
-7.56
-9.22
-10.57
-11.57
-12.26
-12.69
-12.92
-12.99
-12.94
-12.78
-12.52
-12.11
-11.51
-10.67
-9.56
-8.26
-6.91
-5.68
-4.70
-3.96
-3.39
-2.84
-2.29
-1.77
-1.41
-1.27
-1.35
-1.52
-1.60
-1.50
-1.20
-0.82
-0.48
-0.27
-0.22
-0.28
-0.43
-0.65
-0.94
-1.29
-1.68
-2.04
-2.34
-2.57
-2.74
-2.93
-3.21
-3.63
-4.21
-4.90
-5.64
-6.33
-6.93
-7.44
-7.92
-8.44
-9.06
-9.77
-10.55
-11.33
-12.08
-12.78
-13.41
-13.98
-14.44
-14.77
-14.93
-14.84
-14.44
-13.68
-12.53
-11.02
-9.27
-7.43
-5.68
-4.10
-2.73
-1.54
-0.47
0.51
1.40
2.18
2.89
3.52
4.12
4.71
5.30
5.88
6.42
6.87
7.20
7.38
7.40
7.28
7.04
6.73
6.35
5.93
5.47
5.00
4.56
4.18
3.83
3.44
2.95
2.33
1.65
1.05
0.64
0.49
0.60
0.88
1.27
1.69
2.13
2.58
3.01
3.43
3.85
4.28
4.71
5.09
5.29
5.25
4.95
4.51
4.06
3.74
3.57
3.48
3.38
3.21
3.02
2.89
2.88
3.00
3.17
3.32
3.33
3.19
2.90
2.51
2.07
1.61
1.14
0.65
0.14
-0.39
-0.92
-1.42
-1.83
-2.16
-2.43
-2.68
-2.91
-3.08
-3.07
-2.77
-2.19
-1.39
-0.53
0.22
0.79
1.14
1.35
1.46
1.54
1.59
1.61
1.63
1.73
1.96
2.36
2.88
3.43
3.89
4.16
4.22
4.14
4.01
3.93
3.94
4.01
4.09
4.13
4.10
4.00
3.83
3.57
3.20
2.75
2.27
1.89
1.71
1.76
1.95
2.14
2.15
1.93
1.55
1.15
0.87
0.74
0.68
0.53
0.17
-0.43
-1.18
-1.95
-2.66
-3.24
-3.71
-4.11
-4.41
-4.59
-4.55
-4.26
-3.69
-2.92
-2.05
-1.21
-0.51
0.01
0.38
0.69
0.99
1.33
1.71
2.08
2.43
2.74
3.03
3.28
3.47
3.56
3.50
3.29
2.97
2.61
2.31
2.15
2.17
2.37
2.67
2.98
3.17
3.16
2.99
2.75
2.58
2.57
2.74
2.99
3.15
3.09
2.79
2.34
1.88
1.58
1.49
1.59
1.76
1.87
1.85
1.66
1.34
0.92
0.45
-0.02
-0.45
-0.76
-0.92
-0.89
-0.73
-0.53
-0.41
-0.42
-0.55
-0.72
-0.84
-0.89
-0.91
-1.02
-1.35
-1.90
-2.63
-3.37
-4.00
-4.42
-4.58
-4.50
-4.18
-3.64
-2.95
-2.24
-1.63
-1.21
-0.97
-0.82
-0.66
-0.36
0.07
0.62
1.20
1.73
2.14
2.37
2.43
2.31
2.07
1.80
1.57
1.45
1.48
1.67
1.99
2.39
2.77
3.00
2.99
2.72
2.29
1.86
1.55
1.42
1.42
1.42
1.34
1.17
0.96
0.80
0.72
0.71
0.69
0.62
0.50
0.36
0.25
0.14
-0.00
-0.25
-0.58
-0.95
-1.22
-1.30
-1.19
-0.96
-0.72
-0.58
-0.56
-0.66
-0.83
-1.09
-1.42
-1.83
-2.25
-2.56
-2.70
-2.67
-2.56
-2.55
-2.76
-3.19
-3.71
-4.08
-4.10
-3.67
-2.86
-1.89
-0.98
-0.30
0.11
0.33
0.48
0.65
0.91
1.25
1.66
2.15
2.71
3.29
3.82
4.17
4.24
4.04
3.63
3.17
2.83
2.73
2.99
3.62
4.59
5.75
6.94
7.97
8.74
9.23
9.52
9.73
9.96
10.21
10.43
10.54
10.45
10.14
9.63
8.95
8.18
7.36
6.49
5.59
4.62
3.58
2.50
1.43
0.43
-0.50
-1.39
-2.28
-3.17
-4.00
-4.66
-5.08
-5.27
-5.34
-5.45
-5.71
-6.13
-6.64
-7.11
-7.48
-7.74
-7.94
-8.10
-8.21
-8.23
-8.15
-8.02
-7.95
-8.02
-8.21
-8.37
-8.29
-7.78
-6.82
-5.53
-4.17
-3.02
-2.25
-1.87
-1.79
-1.80
-1.74
-1.52
-1.15
-0.72
-0.35
-0.15
-0.17
-0.35
-0.62
-0.87
-1.02
-1.06
-1.03
-1.02
-1.09
-1.25
-1.47
-1.67
-1.78
-1.74
-1.53
-1.18
-0.72
-0.24
0.19
0.50
0.65
0.65
0.52
0.34
0.15
-0.01
-0.10
-0.15
-0.20
-0.29
-0.51
-0.92
-1.56
-2.37
-3.23
-3.98
-4.48
-4.67
-4.63
-4.50
-4.41
-4.47
-4.67
-4.94
-5.15
-5.20
-5.05
-4.69
-4.23
-3.76
-3.41
-3.23
-3.23
-3.36
-3.55
-3.74
-3.90
-3.98
-3.90
-3.59
-3.00
-2.20
-1.34
-0.61
-0.15
0.00
-0.05
-0.18
-0.31
-0.39
-0.45
-0.54
-0.65
-0.73
-0.73
-0.57
-0.26
0.18
0.64
1.04
1.30
1.41
1.40
1.33
1.28
1.26
1.29
1.33
1.34
1.30
1.23
1.17
1.19
1.33
1.57
1.88
2.16
2.32
2.31
2.17
1.98
1.87
1.89
2.02
2.14
2.09
1.74
1.08
0.22
-0.67
-1.41
-1.92
-2.20
-2.38
-2.58
-2.84
-3.15
-3.44
-3.67
-3.88
-4.13
-4.49
-4.99
-5.57
-6.09
-6.44
-6.52
-6.29
-5.78
-5.10
-4.37
-3.67
-3.08
-2.59
-2.19
-1.87
-1.65
-1.54
-1.54
-1.62
-1.64
-1.50
-1.13
-0.57
0.08
0.67
1.10
1.34
1.45
1.50
1.59
1.78
2.09
2.47
2.87
3.19
3.40
3.45
3.38
3.20
2.95
2.65
2.31
1.97
1.69
1.51
1.46
1.49
1.54
1.56
1.51
1.42
1.33
1.29
1.31
1.40
1.54
1.72
1.92
2.08
2.13
2.00
1.67
1.18
0.65
0.19
-0.12
-0.30
-0.45
-0.66
-0.97
-1.36
-1.73
-1.95
-1.94
-1.65
-1.13
-0.51
0.05
0.44
0.59
0.56
0.48
0.46
0.55
0.69
0.79
0.79
0.73
0.69
0.79
1.02
1.30
1.47
1.41
1.09
0.55
-0.10
-0.73
-1.28
-1.71
-2.00
-2.18
-2.28
-2.32
-2.32
-2.27
-2.15
-1.98
-1.83
-1.76
-1.79
-1.91
-2.01
-2.03
-1.93
-1.80
-1.76
-1.91
-2.28
-2.79
-3.28
-3.63
-3.76
-3.70
-3.57
-3.53
-3.69
-4.07
-4.60
-5.13
-5.55
-5.77
-5.76
-5.52
-5.07
-4.40
-3.53
-2.51
-1.49
-0.61
-0.02
0.26
0.29
0.20
0.13
0.14
0.25
0.39
0.51
0.63
0.79
1.05
1.44
1.92
2.38
2.75
2.96
3.04
3.07
3.11
3.18
3.26
3.31
3.30
3.23
3.10
2.88
2.56
2.10
1.53
0.93
0.41
0.03
-0.23
-0.44
-0.68
-0.97
-1.31
-1.64
-1.96
-2.28
-2.67
-3.13
-3.65
-4.19
-4.67
-5.07
-5.33
-5.42
-5.28
-4.86
-4.13
-3.17
-2.09
-1.08
-0.33
0.09
0.21
0.17
0.18
0.37
0.79
1.35
1.90
2.35
2.66
2.85
2.97
3.06
3.09
3.03
2.90
2.77
2.73
2.83
3.03
3.24
3.40
3.46
3.48
3.53
3.66
3.84
3.99
4.02
3.92
3.72
3.54
3.47
3.52
3.66
3.79
3.84
3.75
3.55
3.25
2.89
2.49
2.11
1.78
1.55
1.44
1.46
1.54
1.62
1.60
1.41
1.02
0.47
-0.17
-0.80
-1.35
-1.81
-2.20
-2.57
-2.98
-3.44
-3.97
-4.51
-4.98
-5.25
-5.19
-4.70
-3.81
-2.69
-1.61
-0.81
-0.40
-0.31
-0.31
-0.19
0.15
0.69
1.29
1.83
2.22
2.47
2.62
2.69
2.73
2.78
2.89
3.09
3.39
3.68
3.84
3.74
3.39
2.88
2.36
1.95
1.76
1.79
2.02
2.37
2.74
3.01
3.08
2.92
2.59
2.20
1.90
1.80
1.91
2.17
2.46
2.67
2.73
2.62
2.37
2.10
1.87
1.72
1.62
1.48
1.25
0.93
0.63
0.43
0.36
0.38
0.37
0.26
0.02
-0.27
-0.52
-0.68
-0.76
-0.80
-0.84
-0.90
-0.96
-1.04
-1.18
-1.45
-1.84
-2.25
-2.49
-2.37
-1.76
-0.74
0.47
1.54
2.22
2.40
2.19
1.79
1.47
1.35
1.45
1.69
1.92
2.12
2.29
2.49
2.75
3.05
3.30
3.39
3.26
2.98
2.70
2.57
2.62
2.81
2.96
2.91
2.61
2.10
1.52
1.02
0.68
0.49
0.42
0.43
0.52
0.68
0.88
1.04
1.12
1.09
1.00
0.94
0.96
1.05
1.13
1.10
0.91
0.57
0.14
-0.31
-0.71
-1.05
-1.29
-1.44
-1.48
-1.46
-1.45
-1.52
-1.71
-2.02
-2.38
-2.71
-2.92
-2.94
-2.73
-2.26
-1.55
-0.71
0.11
0.73
1.03
0.97
0.64
0.17
-0.28
-0.62
-0.78
-0.80
-0.70
-0.53
-0.34
-0.14
0.01
0.10
0.11
0.03
-0.08
-0.16
-0.12
0.10
0.49
0.98
1.42
1.69
1.71
1.52
1.21
0.85
0.53
0.27
0.09
0.02
0.06
0.20
0.35
0.43
0.32
-0.02
-0.54
-1.12
-1.63
-1.95
-2.04
-1.89
-1.50
-0.93
-0.28
0.30
0.69
0.82
0.73
0.56
0.47
0.56
0.83
1.17
1.45
1.58
1.53
1.33
1.01
0.60
0.17
-0.21
-0.42
-0.38
-0.10
0.35
0.83
1.18
1.33
1.24
0.95
0.54
0.10
-0.32
-0.67
-0.95
-1.21
-1.48
-1.76
-2.02
-2.18
-2.23
-2.18
-2.13
-2.18
-2.35
-2.59
-2.83
-2.98
-3.06
-3.10
-3.16
-3.25
-3.33
-3.35
-3.22
-2.93
-2.47
-1.93
-1.36
-0.86
-0.48
-0.23
-0.06
0.07
0.17
0.23
0.20
0.02
-0.32
-0.78
-1.25
-1.67
-2.00
-2.21
-2.33
-2.41
-2.53
-2.81
-3.40
-4.33
-5.52
-6.74
-7.75
-8.34
-8.50
-8.36
-8.13
-7.99
-7.95
-7.93
-7.80
-7.43
-6.78
-5.83
-4.60
-3.05
-1.22
0.82
2.92
4.86
6.44
7.54
8.15
8.36
8.31
8.13
7.96
7.91
8.05
8.40
8.89
9.35
9.57
9.38
8.71
7.63
6.34
5.09
4.06
3.33
2.85
2.52
2.23
1.92
1.61
1.36
1.22
1.24
1.40
1.64
1.89
2.07
2.11
1.96
1.62
1.07
0.33
-0.56
-1.53
-2.43
-3.13
-3.53
-3.59
-3.38
-3.08
-2.87
-2.91
-3.27
-3.93
-4.78
-5.64
-6.31
-6.63
-6.48
-5.85
-4.84
-3.60
-2.34
-1.19
-0.26
0.38
0.71
0.78
0.65
0.45
0.29
0.26
0.33
0.43
0.45
0.33
0.12
-0.09
-0.22
-0.26
-0.27
-0.34
-0.50
-0.73
-0.93
-1.03
-0.99
-0.86
-0.72
-0.63
-0.62
-0.65
-0.69
-0.74
-0.84
-1.02
-1.32
-1.71
-2.11
-2.42
-2.56
-2.52
-2.34
-2.13
-1.95
-1.80
-1.64
-1.42
-1.12
-0.78
-0.42
-0.07
0.29
0.74
1.29
1.88
2.37
2.61
2.53
2.16
1.63
1.11
0.72
0.52
0.49
0.62
0.87
1.21
1.61
2.01
2.30
2.38
2.22
1.83
1.31
0.79
0.38
0.14
0.09
0.20
0.40
0.61
0.77
0.82
0.72
0.47
0.13
-0.25
-0.58
-0.79
-0.83
-0.71
-0.48
-0.25
-0.14
-0.21
-0.40
-0.56
-0.57
-0.38
-0.13
-0.05
-0.31
-0.93
-1.70
-2.34
-2.60
-2.44
-2.04
-1.61
-1.31
-1.15
-1.01
-0.77
-0.41
-0.04
0.22
0.28
0.17
0.00
-0.10
-0.07
0.08
0.30
0.53
0.77
1.01
1.30
1.63
1.97
2.27
2.44
2.45
2.31
2.11
1.95
1.89
1.93
1.99
1.96
1.79
1.51
1.21
0.96
0.78
0.66
0.53
0.41
0.32
0.30
0.33
0.36
0.31
0.14
-0.14
-0.49
-0.85
-1.18
-1.45
-1.65
-1.78
-1.82
-1.78
-1.72
-1.72
-1.80
-1.96
-2.12
-2.23
-2.24
-2.16
-2.01
-1.79
-1.47
-1.00
-0.39
0.28
0.90
1.36
1.62
1.74
1.82
1.87
1.86
1.70
1.35
0.89
0.46
0.22
0.24
0.46
0.75
0.99
1.12
1.20
1.27
1.39
1.52
1.56
1.47
1.28
1.09
1.05
1.26
1.70
2.24
2.72
2.97
2.96
2.73
2.39
2.02
1.65
1.28
0.88
0.48
0.13
-0.14
-0.30
-0.41
-0.52
-0.69
-0.95
-1.27
-1.59
-1.85
-1.99
-2.01
-1.97
-1.94
-2.01
-2.19
-2.43
-2.60
-2.60
-2.40
-2.08
-1.73
-1.40
-1.04
-0.60
-0.03
0.58
1.04
1.19
0.98
0.52
0.06
-0.17
-0.05
0.35
0.83
1.18
1.25
1.05
0.69
0.36
0.21
0.33
0.63
0.97
1.18
1.16
0.93
0.63
0.39
0.30
0.35
0.44
0.47
0.42
0.32
0.25
0.24
0.25
0.21
0.04
-0.27
-0.69
-1.12
-1.47
-1.70
-1.76
-1.68
-1.45
-1.11
-0.71
-0.34
-0.09
-0.03
-0.17
-0.44
-0.72
-0.92
-0.99
-0.95
-0.82
-0.60
-0.29
0.06
0.38
0.53
0.43
0.06
-0.45
-0.90
-1.09
-0.94
-0.52
0.04
0.57
0.99
1.25
1.37
1.38
1.27
1.06
0.79
0.55
0.39
0.34
0.35
0.33
0.17
-0.18
-0.69
-1.24
-1.69
-1.91
-1.85
-1.52
-1.02
-0.45
0.12
0.65
1.12
1.55
1.91
2.17
2.31
2.29
2.10
1.75
1.27
0.68
0.10
-0.37
-0.62
-0.58
-0.29
0.13
0.52
0.77
0.83
0.69
0.36
-0.15
-0.84
-1.65
-2.50
-3.26
-3.84
-4.21
-4.47
-4.76
-5.17
-5.76
-6.44
-7.08
-7.52
-7.73
-7.79
-7.87
-8.10
-8.53
-9.05
-9.51
-9.79
-9.85
-9.73
-9.45
-8.86
-7.73
-5.80
-2.98
0.51
4.22
7.62
10.37
12.35
13.70
14.61
15.17
15.32
14.93
13.99
12.68
11.39
10.55
10.42
10.96
11.81
12.48
12.51
11.74
10.28
8.51
6.86
5.65
5.00
4.79
4.77
4.64
4.15
3.22
1.92
0.49
-0.73
-1.38
-1.29
-0.46
0.87
2.33
3.49
4.08
3.99
3.34
2.37
1.35
0.54
0.08
-0.01
0.18
0.47
0.66
0.55
0.09
-0.65
-1.49
-2.23
-2.73
-2.93
-2.91
-2.75
-2.57
-2.47
-2.48
-2.64
-2.91
-3.27
-3.67
-4.08
-4.45
-4.77
-5.02
-5.22
-5.37
-5.51
-5.65
-5.76
-5.81
-5.70
-5.36
-4.77
-4.00
-3.19
-2.47
-1.96
-1.70
-1.65
-1.71
-1.75
-1.67
-1.41
-0.95
-0.38
0.18
0.62
0.84
0.84
0.68
0.54
0.53
0.74
1.09
1.45
1.64
1.56
1.22
0.71
0.18
-0.25
-0.51
-0.59
-0.52
-0.34
-0.12
0.04
0.04
-0.20
-0.70
-1.35
-2.00
-2.47
-2.66
-2.57
-2.26
-1.85
-1.39
-0.92
-0.44
0.07
0.57
1.02
1.36
1.57
1.64
1.60
1.47
1.28
1.05
0.80
0.57
0.38
0.30
0.33
0.51
0.81
1.21
1.61
1.95
2.17
2.23
2.14
1.93
1.62
1.29
0.98
0.77
0.70
0.75
0.88
0.98
0.95
0.74
0.37
-0.09
-0.55
-0.95
-1.23
-1.39
-1.43
-1.36
-1.23
-1.12
-1.14
-1.37
-1.85
-2.50
-3.14
-3.55
-3.59
-3.24
-2.60
-1.88
-1.27
-0.86
-0.66
-0.59
-0.53
-0.39
-0.12
0.27
0.71
1.12
1.42
1.57
1.59
1.52
1.43
1.39
1.38
1.36
1.30
1.20
1.13
1.17
1.35
1.60
1.75
1.64
1.21
0.52
-0.21
-0.76
-0.98
-0.90
-0.72
-0.65
-0.79
-1.13
-1.49
-1.69
-1.65
-1.41
-1.10
-0.87
-0.76
-0.77
-0.87
-1.04
-1.30
-1.66
-2.10
-2.51
-2.75
-2.69
-2.29
-1.59
-0.75
0.05
0.63
0.91
0.88
0.61
0.21
-0.21
-0.58
-0.89
-1.17
-1.42
-1.64
-1.79
-1.84
-1.75
-1.57
-1.37
-1.20
-1.10
-1.04
-0.93
-0.67
-0.25
0.30
0.87
1.33
1.54
1.48
1.21
0.85
0.56
0.45
0.53
0.74
0.95
1.01
0.88
0.60
0.28
0.03
-0.08
-0.07
0.00
0.06
0.07
0.01
-0.11
-0.32
-0.59
-0.87
-1.07
-1.10
-0.89
-0.46
0.08
0.64
1.07
1.33
1.35
1.16
0.82
0.41
0.05
-0.19
-0.23
-0.11
0.10
0.26
0.29
0.14
-0.14
-0.48
-0.77
-0.96
-1.01
-0.95
-0.83
-0.72
-0.71
-0.87
-1.22
-1.70
-2.19
-2.57
-2.75
-2.72
-2.53
-2.26
-1.94
-1.58
-1.19
-0.84
-0.61
-0.60
-0.85
-1.29
-1.80
-2.21
-2.43
-2.42
-2.19
-1.79
-1.25
-0.62
0.02
0.57
0.94
1.07
0.97
0.72
0.44
0.25
0.20
0.28
0.36
0.31
0.08
-0.26
-0.55
-0.61
-0.35
0.18
0.79
1.30
1.56
1.53
1.31
1.04
0.86
0.83
0.93
1.08
1.20
1.26
1.29
1.33
1.42
1.54
1.63
1.60
1.40
1.04
0.56
0.03
-0.53
-1.12
-1.73
-2.27
-2.65
-2.78
-2.67
-2.44
-2.27
-2.34
-2.71
-3.36
-4.13
-4.87
-5.43
-5.72
-5.69
-5.35
-4.79
-4.09
-3.38
-2.71
-2.13
-1.60
-1.06
-0.49
0.12
0.77
1.46
2.23
3.03
3.77
4.27
4.35
3.94
3.12
2.16
1.33
0.83
0.68
0.73
0.82
0.81
0.73
0.67
0.73
0.92
1.13
1.22
1.11
0.83
0.51
0.28
0.23
0.31
0.37
0.26
-0.11
-0.70
-1.34
-1.86
-2.09
-2.02
-1.76
-1.52
-1.45
-1.63
-1.96
-2.31
-2.50
-2.48
-2.30
-2.08
-1.91
-1.88
-1.96
-2.09
-2.16
-2.08
-1.77
-1.21
-0.45
0.38
1.16
1.76
2.15
2.35
2.46
2.51
2.50
2.43
2.29
2.14
2.11
2.29
2.71
3.24
3.70
3.89
3.73
3.25
2.58
1.87
1.17
0.50
-0.16
-0.82
-1.39
-1.78
-1.91
-1.78
-1.49
-1.23
-1.12
-1.21
-1.43
-1.63
-1.69
-1.60
-1.43
-1.26
-1.15
-1.04
-0.80
-0.38
0.22
0.84
1.32
1.60
1.73
1.88
2.15
2.52
2.84
2.94
2.77
2.47
2.24
2.25
2.53
2.95
3.31
3.48
3.44
3.32
3.31
3.53
4.00
4.64
5.30
5.80
6.00
5.84
5.27
4.40
3.37
2.37
1.56
1.05
0.85
0.89
1.04
1.18
1.19
1.05
0.77
0.40
-0.00
-0.42
-0.87
-1.33
-1.80
-2.22
-2.57
-2.85
-3.09
-3.32
-3.61
-3.97
-4.38
-4.81
-5.16
-5.38
-5.39
-5.14
-4.64
-4.00
-3.38
-2.94
-2.78
-2.88
-3.09
-3.20
-3.06
-2.62
-1.96
-1.26
-0.66
-0.26
-0.06
0.04
0.09
0.14
0.18
0.17
0.11
0.04
0.06
0.26
0.68
1.26
1.89
2.40
2.67
2.65
2.35
1.87
1.32
0.82
0.46
0.25
0.13
0.04
-0.10
-0.29
-0.46
-0.54
-0.46
-0.22
0.09
0.37
0.53
0.54
0.42
0.24
0.05
-0.08
-0.14
-0.13
-0.11
-0.18
-0.41
-0.82
-1.33
-1.80
-2.09
-2.14
-1.95
-1.62
-1.22
-0.82
-0.44
-0.08
0.24
0.52
0.76
0.97
1.14
1.26
1.30
1.25
1.16
1.09
1.10
1.17
1.21
1.09
0.77
0.31
-0.16
-0.49
-0.61
-0.53
-0.31
-0.02
0.29
0.63
0.91
1.06
0.98
0.67
0.19
-0.32
-0.74
-1.01
-1.13
-1.11
-0.98
-0.74
-0.41
-0.05
0.26
0.43
0.45
0.33
0.12
-0.12
-0.37
-0.62
-0.87
-1.08
-1.24
-1.35
-1.44
-1.56
-1.71
-1.86
-1.95
-1.92
-1.74
-1.48
-1.26
-1.15
-1.18
-1.28
-1.32
-1.17
-0.84
-0.41
-0.06
0.12
0.10
-0.00
-0.00
0.22
0.66
1.23
1.80
2.25
2.57
2.76
2.86
2.87
2.79
2.60
2.32
2.00
1.68
1.42
1.32
1.43
1.75
2.23
2.68
2.92
2.80
2.32
1.64
0.99
0.58
0.50
0.66
0.93
1.14
1.23
1.18
1.02
0.78
0.43
0.01
-0.43
-0.80
-0.98
-0.92
-0.67
-0.34
-0.08
-0.01
-0.17
-0.51
-0.94
-1.33
-1.58
-1.63
-1.47
-1.18
-0.90
-0.74
-0.80
-1.04
-1.36
-1.59
-1.65
-1.50
-1.18
-0.75
-0.25
0.30
0.87
1.38
1.72
1.80
1.63
1.32
1.05
0.95
1.05
1.26
1.47
1.60
1.65
1.66
1.65
1.62
1.49
1.27
1.01
0.81
0.79
0.96
1.26
1.55
1.70
1.64
1.40
1.04
0.61
0.16
-0.26
-0.58
-0.71
-0.58
-0.23
0.23
0.63
0.84
0.80
0.59
0.36
0.25
0.34
0.62
0.99
1.36
1.67
1.85
1.90
1.78
1.50
1.07
0.56
0.03
-0.50
-1.03
-1.59
-2.19
-2.79
-3.31
-3.65
-3.76
-3.67
-3.44
-3.16
-2.88
-2.64
-2.43
-2.24
-2.07
-1.87
-1.57
-1.11
-0.45
0.35
1.15
1.82
2.28
2.52
2.62
2.68
2.78
2.95
3.18
3.48
3.80
4.09
4.27
4.23
3.93
3.40
2.72
2.06
1.53
1.22
1.12
1.16
1.25
1.30
1.23
0.99
0.56
-0.05
-0.76
-1.50
-2.19
-2.77
-3.21
-3.47
-3.56
-3.47
-3.26
-3.01
-2.79
-2.65
-2.58
-2.49
-2.29
-1.92
-1.36
-0.66
0.12
0.88
1.54
2.04
2.32
2.34
2.11
1.66
1.08
0.44
-0.20
-0.81
-1.36
-1.81
-2.10
-2.18
-2.07
-1.84
-1.65
-1.60
-1.76
-2.10
-2.50
-2.85
-3.10
-3.20
-3.16
-3.00
-2.68
-2.18
-1.53
-0.82
-0.17
0.26
0.36
0.16
-0.23
-0.61
-0.81
-0.79
-0.62
-0.50
-0.63
-1.12
-1.92
-2.83
-3.61
-4.02
-3.93
-3.38
-2.51
-1.55
-0.68
-0.02
0.42
0.67
0.77
0.73
0.56
0.25
-0.18
-0.64
-1.04
-1.28
-1.33
-1.18
-0.91
-0.56
-0.23
-0.01
0.04
-0.10
-0.37
-0.66
-0.83
-0.80
-0.59
-0.31
-0.07
0.07
0.13
0.18
0.27
0.38
0.49
0.53
0.51
0.48
0.47
0.48
0.44
0.25
-0.12
-0.62
-1.11
-1.45
-1.56
-1.42
-1.11
-0.71
-0.28
0.12
0.49
0.80
1.01
1.10
1.04
0.86
0.59
0.29
0.01
-0.22
-0.41
-0.60
-0.81
-1.01
-1.12
-1.07
-0.77
-0.26
0.35
0.92
1.32
1.48
1.43
1.24
1.02
0.82
0.66
0.55
0.47
0.41
0.37
0.34
0.29
0.22
0.12
0.04
0.07
0.26
0.65
1.21
1.85
2.49
3.05
3.48
3.79
3.99
4.09
4.11
4.06
3.93
3.73
3.46
3.11
2.69
2.24
1.84
1.58
1.49
1.55
1.66
1.69
1.50
1.02
0.28
-0.57
-1.34
-1.87
-2.09
-2.07
-1.98
-2.01
-2.25
-2.69
-3.21
-3.63
-3.80
-3.65
-3.20
-2.55
-1.81
-1.13
-0.61
-0.30
-0.21
-0.30
-0.49
-0.70
-0.85
-0.85
-0.69
-0.37
0.06
0.51
0.88
1.09
1.04
0.71
0.14
-0.61
-1.37
-2.01
-2.43
-2.66
-2.80
-3.03
-3.50
-4.30
-5.40
-6.70
-8.01
-9.15
-9.98
-10.40
-10.35
-9.83
-8.85
-7.42
-5.61
-3.56
-1.41
0.66
2.55
4.20
5.62
6.76
7.58
7.98
7.94
7.56
7.01
6.50
6.12
5.85
5.54
5.07
4.43
3.72
3.10
2.63
2.32
2.05
1.72
1.33
0.94
0.63
0.47
0.42
0.42
0.41
0.34
0.19
-0.02
-0.33
-0.72
-1.14
-1.50
-1.69
-1.65
-1.44
-1.19
-1.02
-1.01
-1.12
-1.22
-1.24
-1.14
-1.00
-0.91
-0.96
-1.13
-1.34
-1.47
-1.48
-1.36
-1.19
-1.04
-0.97
-0.96
-0.98
-0.95
-0.84
-0.63
-0.37
-0.11
0.10
0.23
0.28
0.30
0.36
0.48
0.67
0.85
0.93
0.85
0.62
0.31
0.06
-0.03
0.06
0.24
0.38
0.37
0.13
-0.27
-0.78
-1.32
-1.85
-2.31
-2.65
-2.77
-2.61
-2.16
-1.55
-0.94
-0.52
-0.37
-0.42
-0.55
-0.59
-0.45
-0.14
0.24
0.57
0.79
0.91
1.00
1.17
1.45
1.76
1.98
1.98
1.75
1.38
1.06
0.96
1.15
1.56
2.01
2.36
2.53
2.55
2.49
2.43
2.38
2.29
2.10
1.79
1.44
1.14
1.00
1.01
1.11
1.14
1.03
0.78
0.49
0.33
0.41
0.70
1.06
1.30
1.29
1.02
0.62
0.25
0.00
-0.13
-0.24
-0.44
-0.76
-1.14
-1.50
-1.76
-1.96
-2.19
-2.52
-2.96
-3.36
-3.56
-3.42
-2.89
-2.07
-1.14
-0.27
0.40
0.83
1.00
0.98
0.82
0.61
0.45
0.40
0.49
0.70
0.99
1.30
1.57
1.81
2.01
2.19
2.36
2.53
2.70
2.85
2.98
3.07
3.09
3.02
2.83
2.47
1.92
1.23
0.52
-0.04
-0.30
-0.24
0.04
0.33
0.46
0.42
0.34
0.41
0.75
1.28
1.77
1.97
1.76
1.25
0.64
0.13
-0.21
-0.47
-0.79
-1.26
-1.84
-2.41
-2.81
-3.00
-2.98
-2.85
-2.63
-2.35
-2.00
-1.60
-1.19
-0.87
-0.70
-0.68
-0.76
-0.85
-0.83
-0.65
-0.26
0.32
1.04
1.85
2.63
3.30
3.71
3.77
3.45
2.81
1.99
1.26
0.83
0.84
1.28
1.97
2.66
3.15
3.37
3.37
3.28
3.22
3.24
3.29
3.29
3.16
2.86
2.41
1.87
1.35
0.92
0.56
0.26
-0.07
-0.47
-0.94
-1.41
-1.78
-1.99
-1.99
-1.81
-1.46
-0.96
-0.30
0.49
1.32
2.05
2.50
2.55
2.20
1.56
0.78
0.02
-0.64
-1.20
-1.66
-2.02
-2.23
-2.22
-1.96
-1.52
-1.04
-0.66
-0.48
-0.46
-0.47
-0.35
-0.08
0.32
0.71
0.97
1.06
1.01
0.88
0.68
0.40
0.05
-0.39
-0.83
-1.18
-1.37
-1.38
-1.26
-1.04
-0.77
-0.47
-0.15
0.11
0.24
0.17
-0.09
-0.44
-0.76
-0.93
-0.92
-0.82
-0.73
-0.77
-1.00
-1.40
-1.85
-2.24
-2.47
-2.46
-2.22
-1.79
-1.26
-0.77
-0.42
-0.25
-0.22
-0.21
-0.08
0.22
0.67
1.13
1.38
1.30
0.86
0.20
-0.47
-0.97
-1.20
-1.18
-0.96
-0.60
-0.14
0.43
1.09
1.77
2.39
2.82
2.98
2.88
2.55
2.09
1.62
1.22
0.94
0.76
0.59
0.34
-0.08
-0.66
-1.36
-2.07
-2.71
-3.20
-3.48
-3.46
-3.10
-2.39
-1.41
-0.32
0.68
1.42
1.80
1.82
1.55
1.10
0.62
0.20
-0.06
-0.14
-0.08
0.04
0.08
-0.06
-0.36
-0.75
-1.09
-1.24
-1.14
-0.80
-0.30
0.25
0.76
1.12
1.26
1.17
0.90
0.56
0.28
0.17
0.25
0.41
0.49
0.33
-0.09
-0.68
-1.26
-1.65
-1.77
-1.67
-1.50
-1.42
-1.50
-1.67
-1.83
-1.85
-1.74
-1.57
-1.51
-1.63
-1.94
-2.31
-2.54
-2.50
-2.15
-1.59
-0.99
-0.51
-0.25
-0.18
-0.22
-0.24
-0.17
-0.02
0.16
0.25
0.19
0.01
-0.21
-0.32
-0.20
0.17
0.71
1.24
1.58
1.60
1.31
0.81
0.29
-0.08
-0.20
-0.05
0.28
0.67
1.03
1.26
1.37
1.38
1.30
1.15
0.91
0.61
0.29
0.06
0.01
0.16
0.47
0.78
0.95
0.88
0.58
0.13
-0.37
-0.86
-1.30
-1.69
-2.00
-2.16
-2.12
-1.88
-1.46
-0.98
-0.51
-0.08
0.33
0.79
1.33
1.92
2.45
2.77
2.75
2.34
1.64
0.87
0.26
0.01
0.14
0.58
1.10
1.51
1.68
1.59
1.34
1.05
0.84
0.75
0.75
0.79
0.82
0.82
0.77
0.72
0.68
0.65
0.59
0.44
0.18
-0.17
-0.50
-0.73
-0.79
-0.70
-0.54
-0.43
-0.43
-0.55
-0.75
-1.00
-1.31
-1.69
-2.10
-2.42
-2.50
-2.26
-1.72
-1.04
-0.40
0.03
0.22
0.23
0.17
0.14
0.19
0.33
0.55
0.84
1.17
1.46
1.64
1.65
1.45
1.10
0.67
0.22
-0.17
-0.46
-0.63
-0.63
-0.48
-0.23
0.04
0.23
0.28
0.20
0.06
-0.09
-0.19
-0.28
-0.40
-0.58
-0.83
-1.09
-1.28
-1.37
-1.31
-1.13
-0.85
-0.52
-0.19
0.09
0.26
0.31
0.24
0.07
-0.15
-0.38
-0.60
-0.78
-0.92
-0.97
-0.91
-0.71
-0.41
-0.09
0.15
0.22
0.14
0.01
-0.01
0.16
0.52
0.90
1.15
1.13
0.87
0.49
0.15
-0.00
0.06
0.28
0.57
0.82
0.96
0.96
0.87
0.74
0.66
0.69
0.84
1.04
1.21
1.29
1.25
1.13
0.97
0.76
0.48
0.06
-0.49
-1.07
-1.50
-1.60
-1.27
-0.57
0.26
0.96
1.32
1.26
0.89
0.39
-0.05
-0.33
-0.45
-0.48
-0.50
-0.55
-0.67
-0.87
-1.15
-1.48
-1.79
-1.97
-1.94
-1.67
-1.20
-0.66
-0.19
0.10
0.18
0.12
0.03
0.05
0.20
0.46
0.72
0.90
0.97
0.98
1.00
1.09
1.19
1.18
0.94
0.42
-0.33
-1.14
-1.82
-2.20
-2.24
-2.02
-1.70
-1.47
-1.45
-1.70
-2.15
-2.64
-3.02
-3.20
-3.16
-3.01
-2.83
-2.70
-2.64
-2.66
-2.76
-2.99
-3.40
-4.04
-4.89
-5.88
-6.89
-7.82
-8.58
-9.18
-9.64
-10.00
-10.27
-10.43
-10.44
-10.29
-9.94
-9.40
-8.64
-7.65
-6.37
-4.80
-2.95
-0.91
1.18
3.17
4.93
6.35
7.39
8.08
8.44
8.51
8.33
7.92
7.35
6.72
6.14
5.65
5.26
4.89
4.49
4.05
3.67
3.47
3.56
3.97
4.57
5.17
5.58
5.69
5.52
5.16
4.75
4.41
4.25
4.33
4.69
5.31
6.15
7.05
7.87
8.45
8.69
8.59
8.18
7.52
6.70
5.77
4.76
3.69
2.58
1.45
0.39
-0.52
-1.15
-1.44
-1.43
-1.22
-0.99
-0.88
-0.95
-1.15
-1.35
-1.45
-1.34
-1.06
-0.67
-0.28
0.03
0.20
0.22
0.09
-0.17
-0.49
-0.78
-0.89
-0.70
-0.16
0.63
1.48
2.12
2.38
2.22
1.73
1.06
0.37
-0.22
-0.67
-0.95
-1.07
-1.08
-1.09
-1.19
-1.43
-1.75
-2.06
-2.23
-2.25
-2.19
-2.17
-2.27
-2.46
-2.62
-2.64
-2.47
-2.15
-1.80
-1.49
-1.23
-0.97
-0.68
-0.36
-0.13
-0.13
-0.45
-1.05
-1.75
-2.29
-2.48
-2.31
-1.93
-1.60
-1.50
-1.63
-1.82
-1.85
-1.59
-1.10
-0.61
-0.36
-0.48
-0.86
-1.25
-1.37
-1.05
-0.32
0.64
1.56
2.20
2.42
2.19
1.62
0.85
0.01
-0.80
-1.52
-2.15
-2.67
-3.08
-3.39
-3.58
-3.68
-3.69
-3.61
-3.44
-3.16
-2.79
-2.32
-1.78
-1.24
-0.74
-0.38
-0.19
-0.19
-0.31
-0.43
-0.42
-0.22
0.13
0.54
0.89
1.09
1.16
1.15
1.14
1.15
1.18
1.23
1.27
1.31
1.36
1.45
1.57
1.73
1.92
2.12
2.28
2.35
2.31
2.22
2.16
2.24
2.45
2.70
2.80
2.58
2.00
1.19
0.41
-0.09
-0.17
0.14
0.67
1.24
1.70
1.99
2.11
2.07
1.88
1.57
1.18
0.79
0.46
0.22
0.07
-0.07
-0.22
-0.42
-0.62
-0.74
-0.71
-0.51
-0.20
0.10
0.27
0.21
-0.11
-0.62
-1.17
-1.62
-1.89
-1.94
-1.86
-1.72
-1.57
-1.45
-1.32
-1.19
-1.06
-0.99
-1.01
-1.14
-1.34
-1.54
-1.67
-1.69
-1.62
-1.50
-1.39
-1.31
-1.22
-1.09
-0.85
-0.50
-0.11
0.22
0.39
0.35
0.11
-0.21
-0.50
-0.65
-0.62
-0.43
-0.16
0.13
0.41
0.71
1.10
1.58
2.11
2.57
2.83
2.80
2.53
2.14
1.79
1.58
1.47
1.36
1.14
0.79
0.42
0.19
0.22
0.53
1.00
1.44
1.63
1.50
1.09
0.53
0.00
-0.36
-0.55
-0.57
-0.51
-0.40
-0.23
0.02
0.39
0.81
1.19
1.45
1.50
1.36
1.10
0.83
0.62
0.50
0.42
0.32
0.14
-0.12
-0.43
-0.71
-0.86
-0.85
-0.68
-0.45
-0.28
-0.26
-0.45
-0.81
-1.25
-1.66
-1.91
-1.94
-1.76
-1.41
-0.97
-0.54
-0.15
0.13
0.32
0.40
0.42
0.42
0.47
0.62
0.92
1.33
1.75
2.07
2.19
2.13
1.96
1.80
1.78
1.89
2.03
2.04
1.81
1.34
0.74
0.25
0.04
0.13
0.43
0.73
0.86
0.78
0.57
0.39
0.34
0.41
0.51
0.50
0.34
0.08
-0.17
-0.30
-0.29
-0.19
-0.09
-0.05
-0.09
-0.18
-0.24
-0.26
-0.24
-0.22
-0.27
-0.43
-0.68
-0.96
-1.22
-1.42
-1.57
-1.68
-1.78
-1.89
-2.00
-2.10
-2.18
-2.24
-2.28
-2.29
-2.25
-2.16
-2.01
-1.83
-1.63
-1.42
-1.22
-1.00
-0.79
-0.58
-0.37
-0.16
0.08
0.38
0.73
1.13
1.57
2.03
2.50
3.00
3.53
4.11
4.68
5.15
5.42
5.39
5.07
4.52
3.92
3.45
3.22
3.25
3.44
3.67
3.80
3.75
3.54
3.19
2.76
2.30
1.81
1.29
0.72
0.12
-0.47
-0.95
-1.29
-1.47
-1.56
-1.66
-1.86
-2.15
-2.52
-2.89
-3.23
-3.52
-3.76
-3.95
-4.02
-3.93
-3.63
-3.17
-2.64
-2.18
-1.87
-1.74
-1.73
-1.77
-1.74
-1.60
-1.32
-0.93
-0.52
-0.18
0.00
0.02
-0.06
-0.08
0.15
0.68
1.46
2.31
2.97
3.30
3.25
2.96
2.59
2.32
2.20
2.21
2.29
2.40
2.57
2.79
3.01
3.09
2.91
2.38
1.54
0.56
-0.32
-0.92
-1.20
-1.26
-1.27
-1.41
-1.74
-2.23
-2.75
-3.16
-3.34
-3.24
-2.88
-2.37
-1.84
-1.40
-1.09
-0.88
-0.70
-0.45
-0.10
0.33
0.82
1.30
1.77
2.25
2.75
3.23
3.65
3.91
3.94
3.74
3.38
2.96
2.58
2.29
2.06
1.81
1.50
1.13
0.78
0.55
0.48
0.54
0.56
0.39
-0.11
-0.93
-1.94
-2.90
-3.59
-3.91
-3.86
-3.56
-3.16
-2.76
-2.41
-2.06
-1.67
-1.21
-0.76
-0.38
-0.16
-0.12
-0.18
-0.26
-0.34
-0.44
-0.65
-1.03
-1.58
-2.19
-2.73
-3.09
-3.27
-3.36
-3.45
-3.54
-3.57
-3.38
-2.88
-2.09
-1.17
-0.34
0.21
0.42
0.38
0.22
0.08
-0.01
-0.07
-0.21
-0.51
-0.97
-1.52
-2.06
-2.48
-2.73
-2.84
-2.85
-2.83
-2.83
-2.86
-2.91
-2.92
-2.82
-2.53
-2.05
-1.42
-0.79
-0.29
0.03
0.19
0.28
0.41
0.62
0.87
1.10
1.25
1.31
1.27
1.16
0.98
0.70
0.37
-0.01
-0.38
-0.71
-0.98
-1.16
-1.25
-1.24
-1.20
-1.21
-1.37
-1.72
-2.21
-2.71
-3.07
-3.19
-3.04
-2.66
-2.07
-1.34
-0.50
0.39
1.20
1.82
2.16
2.20
2.06
1.89
1.86
2.06
2.45
2.90
3.23
3.31
3.09
2.61
2.03
1.51
1.15
0.97
0.89
0.79
0.58
0.24
-0.16
-0.52
-0.73
-0.74
-0.53
-0.14
0.38
0.95
1.49
1.92
2.14
2.09
1.77
1.26
0.67
0.19
-0.06
-0.04
0.21
0.52
0.75
0.79
0.66
0.41
0.14
-0.11
-0.36
-0.65
-1.02
-1.44
-1.84
-2.16
-2.37
-2.49
-2.56
-2.60
-2.56
-2.39
-2.07
-1.66
-1.24
-0.97
-0.90
-1.05
-1.35
-1.69
-1.98
-2.18
-2.28
-2.27
-2.18
-1.99
-1.72
-1.39
-1.01
-0.57
-0.08
0.44
0.93
1.30
1.52
1.57
1.54
1.48
1.46
1.44
1.34
1.09
0.67
0.13
-0.40
-0.78
-0.94
-0.87
-0.64
-0.32
-0.00
0.25
0.43
0.55
0.60
0.60
0.51
0.27
-0.13
-0.65
-1.14
-1.44
-1.42
-1.09
-0.57
-0.09
0.11
-0.05
-0.52
-1.06
-1.37
-1.25
-0.63
0.37
1.55
2.71
3.74
4.63
5.38
5.97
6.32
6.38
6.14
5.68
5.14
4.61
4.12
3.61
3.01
2.35
1.74
1.33
1.27
1.59
2.20
2.99
3.83
4.60
5.23
5.67
5.86
5.80
5.54
5.16
4.76
4.41
4.17
4.07
4.13
4.33
4.62
4.93
5.17
5.25
5.15
4.89
4.50
4.04
3.56
3.05
2.52
1.97
1.40
0.87
0.42
0.07
-0.15
-0.29
-0.39
-0.52
-0.73
-1.00
-1.25
-1.42
-1.47
-1.42
-1.37
-1.45
-1.73
-2.21
-2.79
-3.31
-3.58
-3.52
-3.15
-2.63
-2.19
-2.00
-2.11
-2.42
-2.77
-3.05
-3.19
-3.27
-3.37
-3.51
-3.65
-3.73
-3.73
-3.69
-3.69
-3.80
-4.01
-4.26
-4.47
-4.57
-4.54
-4.38
-4.14
-3.86
-3.61
-3.42
-3.34
-3.35
-3.41
-3.45
-3.41
-3.29
-3.08
-2.82
-2.51
-2.20
-1.88
-1.61
-1.42
-1.32
-1.30
-1.31
-1.27
-1.11
-0.81
-0.39
0.07
0.48
0.75
0.90
1.00
1.13
1.41
1.88
2.54
3.30
4.10
4.82
5.42
5.86
6.15
6.32
6.38
6.34
6.19
5.95
5.69
5.52
5.54
5.77
6.09
6.33
6.28
5.85
5.12
4.27
3.52
2.96
2.56
2.17
1.66
0.94
0.06
-0.85
-1.63
-2.22
-2.59
-2.82
-3.00
-3.19
-3.41
-3.62
-3.78
-3.84
-3.84
-3.81
-3.81
-3.88
-3.99
-4.08
-4.04
-3.82
-3.44
-2.96
-2.55
-2.30
-2.27
-2.37
-2.42
-2.30
-1.99
-1.66
-1.52
-1.70
-2.16
-2.67
-2.97
-2.96
-2.73
-2.52
-2.51
-2.69
-2.86
-2.78
-2.37
-1.75
-1.22
-1.05
-1.36
-2.00
-2.69
-3.16
-3.23
-2.92
-2.41
-1.90
-1.54
-1.40
-1.46
-1.61
-1.80
-1.99
-2.22
-2.52
-2.94
-3.41
-3.81
-4.01
-3.89
-3.45
-2.78
-2.03
-1.38
-0.92
-0.67
-0.60
-0.63
-0.70
-0.77
-0.80
-0.73
-0.51
-0.15
0.26
0.59
0.67
0.46
0.02
-0.45
-0.75
-0.74
-0.42
0.08
0.55
0.82
0.80
0.52
0.08
-0.37
-0.70
-0.84
-0.72
-0.34
0.26
0.95
1.53
1.82
1.70
1.19
0.50
-0.10
-0.35
-0.11
0.61
1.68
2.94
4.25
5.51
6.69
7.88
9.27
11.12
13.59
16.60
19.69
22.09
22.90
21.44
17.55
11.64
4.65
-2.34
-8.44
-13.21
-16.75
-19.55
-22.19
-25.06
-28.23
-31.50
-34.57
-37.26
-39.61
-41.72
-43.66
-45.25
-46.07
-45.67
-43.77
-40.37
-35.86
-30.78
-25.75
-21.26
-17.67
-15.09
-13.36
-12.02
-10.32
-7.44
-2.82
3.59
11.11
18.49
24.32
27.42
27.29
24.17
18.93
12.75
6.85
2.28
-0.15
-0.06
2.47
6.77
11.62
15.54
17.21
15.89
11.69
5.50
-1.29
-7.36
-11.84
-14.46
-15.44
-15.30
-14.64
-14.04
-14.10
-15.41
-18.37
-22.94
-28.39
-33.42
-36.52
-36.62
-33.50
-27.89
-21.01
-13.93
-7.13
-0.42
6.69
14.51
22.91
31.43
39.59
47.25
54.63
62.09
69.74
77.30
84.18
89.70
93.38
95.09
94.94
93.21
90.24
86.37
81.98
77.46
73.13
69.14
65.42
61.77
57.92
53.74
49.20
44.40
39.49
34.58
29.82
25.28
21.03
17.11
13.50
10.14
7.06
4.30
1.98
0.21
-0.99
-1.72
-2.15
-2.48
-2.75
-2.84
-2.47
-1.32
0.81
3.90
7.66
11.61
15.32
18.53
21.29
23.88
26.62
29.58
32.47
34.71
35.76
35.39
33.95
32.30
31.45
32.09
34.23
37.02
39.13
39.15
36.23
30.39
22.55
14.24
7.27
3.38
3.82
8.91
17.47
26.58
31.86
28.63
13.52
-14.03
-51.23
-92.71
-132.17
-164.38
-186.32
-197.34
-198.58
-191.96
-179.69
-163.94
-146.88
-130.45
-116.16
-104.72
-95.96
-89.07
-82.82
-76.09
-68.08
-58.54
-47.79
-36.66
-26.21
-17.38
-10.71
-6.14
-3.12
-0.91
1.02
2.84
4.32
5.11
4.97
3.88
2.07
-0.16
-2.50
-4.74
-6.73
-8.40
-9.71
-10.73
-11.61
-12.62
-14.01
-15.88
-18.08
-20.25
-22.06
-23.31
-24.05
-24.53
-25.00
-25.53
-25.94
-25.89
-24.89
-22.52
-18.57
-13.00
-6.10
1.67
9.74
17.61
25.03
32.08
39.04
46.16
53.41
60.51
67.02
72.61
77.04
80.10
81.41
80.47
77.02
71.38
64.67
58.49
54.25
52.44
52.48
53.04
52.83
51.27
48.66
45.69
42.85
40.02
36.59
31.98
26.11
19.60
13.61
9.29
7.42
8.06
10.63
14.05
17.12
18.75
18.19
15.06
9.39
1.56
-7.82
-18.05
-28.43
-38.14
-46.23
-51.68
-53.63
-51.82
-46.83
-39.94
-32.75
-26.62
-22.35
-20.09
-19.56
-20.16
-21.16
-21.78
-21.38
-19.83
-17.62
-15.83
-15.51
-17.14
-20.13
-23.07
-24.44
-23.28
-19.56
-13.99
-7.44
-0.53
6.40
13.04
18.76
22.50
22.98
19.05
10.01
-4.14
-22.66
-44.17
-66.83
-88.54
-107.31
-121.61
-131.04
-136.71
-141.27
-148.08
-159.73
-176.40
-195.03
-209.98
-215.06
-206.10
-182.86
-149.13
-111.18
-75.31
-45.84
-24.41
-10.60
-3.10
-0.70
-2.34
-6.52
-10.85
-12.15
-7.39
5.00
24.18
47.06
69.43
87.64
99.98
107.04
110.94
114.11
117.96
122.48
126.55
128.81
128.39
125.33
120.33
114.37
108.26
102.42
96.91
91.60
86.33
81.01
75.62
70.12
64.43
58.42
52.03
45.35
38.68
32.42
26.94
22.36
18.52
15.09
11.73
8.25
4.76
1.57
-1.00
-2.71
-3.55
-3.76
-3.69
-3.69
-3.99
-4.54
-5.00
-4.89
-3.81
-1.65
1.29
4.35
6.80
8.20
8.50
8.05
7.37
6.85
6.63
6.69
6.93
7.36
8.02
8.90
9.77
10.25
9.94
8.67
6.59
4.13
1.77
-0.15
-1.53
-2.55
-3.43
-4.34
-5.27
-6.05
-6.48
-6.39
-5.73
-4.57
-3.01
-1.22
0.61
2.26
3.55
4.36
4.68
4.64
4.39
4.05
3.60
2.93
1.91
0.54
-1.01
-2.47
-3.58
-4.26
-4.63
-4.87
-5.11
-5.28
-5.17
-4.59
-3.54
-2.27
-1.20
-0.71
-0.99
-1.93
-3.25
-4.60
-5.76
-6.60
-7.10
-7.22
-6.87
-5.93
-4.30
-2.02
0.76
3.73
6.56
8.98
10.79
11.88
12.29
12.07
11.34
10.22
8.84
7.23
5.39
3.26
0.83
-1.80
-4.38
-6.60
-8.19
-9.10
-9.52
-9.78
-10.17
-10.79
-11.50
-12.06
-12.23
-12.00
-11.51
-11.08
-10.96
-11.29
-11.99
-12.81
-13.42
-13.55
-13.07
-12.07
-10.83
-9.69
-8.88
-8.43
-8.16
-7.79
-7.09
-5.99
-4.59
-3.09
-1.66
-0.39
0.71
1.61
2.24
2.47
2.19
1.38
0.21
-1.04
-2.01
-2.46
-2.37
-1.97
-1.61
-1.56
-1.90
-2.48
-3.08
-3.56
-3.94
-4.33
-4.79
-5.21
-5.35
-5.01
-4.15
-3.01
-1.96
-1.33
-1.26
-1.63
-2.19
-2.68
-3.02
-3.24
-3.50
-3.92
-4.54
-5.25
-5.85
-6.10
-5.83
-5.01
-3.83
-2.56
-1.45
-0.62
0.03
0.65
1.38
2.15
2.73
2.89
2.52
1.78
1.00
0.54
0.59
1.13
1.96
2.79
3.42
3.74
3.71
3.36
2.75
1.97
1.16
0.44
-0.14
-0.54
-0.78
-0.86
-0.77
-0.49
-0.05
0.44
0.85
1.02
0.92
0.60
0.22
-0.11
-0.37
-0.67
-1.17
-1.96
-3.00
-4.02
-4.70
-4.77
-4.18
-3.11
-1.86
-0.73
0.09
0.52
0.55
0.19
-0.50
-1.43
-2.39
-3.19
-3.61
-3.63
-3.34
-2.93
-2.58
-2.41
-2.46
-2.77
-3.34
-4.13
-5.05
-5.90
-6.44
-6.49
-6.01
-5.12
-3.99
-2.77
-1.48
0.03
1.98
4.55
7.75
11.40
15.08
18.24
20.33
20.99
20.16
18.24
15.99
14.42
14.50
16.90
21.75
28.63
36.69
44.89
52.27
58.11
61.98
63.74
63.45
61.35
57.75
53.04
47.63
41.98
36.56
31.87
28.32
26.10
25.12
24.97
25.05
24.79
23.82
22.04
19.59
16.72
13.62
10.39
7.09
3.76
0.59
-2.16
-4.23
-5.52
-6.15
-6.46
-6.84
-7.54
-8.61
-9.85
-10.98
-11.81
-12.26
-12.41
-12.40
-12.30
-12.15
-11.99
-11.86
-11.81
-11.84
-11.93
-11.99
-11.99
-11.96
-11.99
-12.11
-12.31
-12.49
-12.55
-12.45
-12.19
-11.82
-11.38
-10.87
-10.32
-9.82
-9.51
-9.50
-9.76
