1636413952.00
64.000000
-0.00
-0.00
-0.00
-0.00
-0.00
-0.00
-0.00
-0.00
-0.00
-0.00
0.00
0.01
0.01
-0.00
-0.03
-0.05
-0.05
0.00
0.13
0.36
0.66
1.01
1.37
1.72
2.06
2.40
2.79
3.24
3.80
4.42
5.06
5.66
6.20
6.68
7.15
7.68
8.31
9.14
10.09
11.04
11.88
12.56
13.14
13.76
14.65
15.96
17.91
20.32
22.90
25.38
27.58
29.57
31.68
34.32
37.81
42.54
48.15
54.10
59.83
64.97
69.59
74.15
79.35
85.70
93.76
102.99
112.62
121.75
129.81
136.80
143.33
150.70
157.61
166.33
177.50
191.24
206.36
219.96
227.66
224.77
207.89
176.12
131.88
79.04
21.98
-36.04
-93.49
-150.16
-206.26
-261.55
-315.20
-365.69
-411.97
-453.23
-488.84
-517.96
-539.35
-551.44
-552.61
-541.78
-518.57
-483.93
-439.72
-388.44
-332.83
-275.43
-218.38
-163.21
-111.01
-62.34
-17.70
22.54
57.98
88.17
112.73
131.48
144.63
152.80
157.08
158.59
158.35
156.96
154.55
150.90
145.67
138.59
129.51
118.41
105.60
92.12
79.90
71.57
69.61
75.17
87.25
102.73
117.39
127.49
131.18
128.81
122.25
113.73
104.73
95.72
86.55
77.25
68.12
59.87
53.22
48.40
44.98
42.04
38.58
34.06
28.68
23.21
18.63
15.63
14.20
13.68
13.11
11.72
9.28
6.17
3.08
0.71
-0.60
-0.99
-0.88
-0.79
-1.04
-1.65
-2.42
-3.16
-3.74
-4.21
-4.59
-4.82
-4.73
-4.19
-3.25
-2.26
-1.73
-2.00
-3.07
-4.50
-5.62
-5.90
-5.17
-3.69
-1.99
-0.57
0.33
0.73
0.79
0.72
0.60
0.44
0.16
-0.28
-0.82
-1.35
-1.74
-1.90
-1.84
-1.68
-1.55
-1.52
-1.58
-1.55
-1.31
-0.80
-0.10
0.60
1.11
1.33
1.29
1.09
0.91
0.85
0.96
1.19
1.47
1.71
1.88
2.01
2.17
2.42
2.84
3.44
4.17
4.97
5.76
6.45
6.96
7.15
6.89
6.10
4.79
3.12
1.38
-0.23
-1.57
-2.60
-3.47
-4.35
-5.40
-6.63
-7.93
-9.12
-9.96
-10.29
-10.05
-9.31
-8.24
-7.08
-6.04
-5.23
-4.72
-4.45
-4.34
-4.32
-4.38
-4.47
-4.54
-4.54
-4.39
-4.07
-3.61
-3.10
-2.63
-2.24
-1.94
-1.69
-1.47
-1.24
-0.97
-0.55
0.14
1.16
2.47
3.85
5.03
5.77
6.01
5.92
5.80
5.93
6.42
7.19
8.04
8.76
9.30
9.79
10.43
11.45
12.90
14.64
16.44
18.05
19.32
20.25
20.93
21.48
21.97
22.42
22.79
22.99
22.97
22.77
22.52
22.40
22.57
23.00
23.52
23.83
23.65
22.87
21.58
20.11
18.75
17.68
16.81
15.84
14.39
12.23
9.35
6.10
2.98
0.54
-0.91
-1.41
-1.46
-1.95
-3.97
-8.49
-16.01
-26.34
-38.52
-51.01
-62.22
-70.95
-76.77
-79.98
-81.48
-82.42
-83.89
-86.55
-90.33
-94.33
-96.94
-96.26
-90.85
-80.31
-65.65
-48.95
-32.73
-19.09
-9.14
-2.89
0.41
1.72
1.87
1.29
0.17
-1.51
-3.81
-6.74
-10.22
-14.00
-17.71
-20.75
-22.41
-21.97
-18.90
-13.12
-5.20
3.63
11.71
17.38
19.55
18.16
14.23
9.62
6.39
6.00
8.66
13.32
18.02
20.88
20.88
18.25
14.15
10.04
7.08
5.91
6.83
9.93
14.86
20.37
24.11
23.52
17.34
7.09
-2.80
-6.68
-0.51
15.86
38.33
60.39
76.12
82.51
79.95
71.05
58.76
45.16
31.45
18.60
7.92
0.95
-1.34
0.75
5.64
11.06
15.01
16.52
15.83
14.06
12.61
12.65
14.62
18.05
21.57
23.20
20.94
13.59
1.37
-13.93
-29.42
-42.08
-49.77
-51.88
-49.22
-43.48
-36.35
-29.04
-22.16
-16.05
-11.10
-7.81
-6.71
-7.87
-10.76
-14.16
-16.53
-16.46
-13.30
-7.44
-0.24
6.33
10.42
11.03
8.51
4.43
0.93
-0.22
1.67
6.02
11.28
15.51
16.80
13.67
5.52
-7.05
-21.83
-35.30
-43.51
-43.75
-35.93
-22.87
-9.06
1.42
6.72
7.79
7.23
7.70
9.85
11.68
9.53
0.25
-16.74
-38.98
-61.43
-78.69
-85.99
-81.44
-66.72
-46.60
-26.92
-12.52
-6.43
-8.97
-18.71
-31.40
-41.56
-43.58
-33.17
-8.37
29.46
74.36
117.74
150.29
167.86
172.40
170.93
171.87
181.51
201.86
229.58
259.23
273.01
257.85
212.53
149.41
85.21
30.77
-7.13
-34.18
-54.93
-71.91
-84.60
-92.42
-97.04
-101.91
-110.59
-123.70
-138.14
-146.26
-140.29
-114.82
-70.94
-17.30
32.41
64.88
72.58
55.41
20.82
-20.85
-59.41
-87.84
-103.13
-105.64
-97.63
-82.32
-64.27
-47.69
-36.42
-32.50
-35.52
-42.81
-50.37
-54.06
-50.98
-40.95
-25.09
-5.85
13.64
30.17
40.98
44.73
42.27
36.57
31.36
31.22
39.68
57.90
83.34
109.63
129.12
136.31
133.03
118.40
91.43
52.76
4.62
-45.76
-89.04
-117.03
-125.80
-117.34
-99.15
-79.85
-66.08
-60.75
-62.78
-68.90
-75.26
-78.92
-78.64
-75.30
-70.18
-64.56
-59.51
-55.71
-53.68
-53.51
-54.55
-55.10
-52.87
-44.91
-28.92
-4.81
24.68
54.19
77.57
89.92
89.15
76.04
53.73
26.39
-1.95
-27.70
-47.89
-60.28
-63.84
-59.41
-49.76
-38.63
-29.23
-22.96
-19.12
-15.78
-11.06
-4.19
4.24
13.06
21.36
29.02
36.59
44.59
53.07
61.64
69.68
76.59
81.53
83.01
79.18
68.83
53.01
35.76
23.15
20.53
29.70
47.58
67.68
83.52
91.86
93.90
93.57
94.34
96.61
97.53
92.99
80.48
60.76
37.32
14.23
-6.22
-24.40
-42.62
-63.04
-85.99
-109.46
-130.10
-145.10
-153.58
-156.75
-156.64
-154.18
-147.82
-133.99
-109.00
-71.61
-24.62
25.40
70.19
102.54
118.29
116.82
100.25
72.21
37.02
-0.45
-34.79
-60.63
-73.98
-73.64
-62.01
-44.29
-26.74
-14.29
-9.06
-10.10
-14.46
-18.65
-19.76
-15.94
-6.37
8.50
27.15
47.29
66.47
82.66
94.33
100.31
99.36
90.26
72.55
48.28
23.10
4.97
0.75
12.22
34.45
57.90
73.13
75.07
64.90
48.13
30.49
14.14
-2.92
-24.36
-51.82
-80.96
-103.95
-114.57
-112.22
-101.33
-88.11
-77.57
-72.15
-73.25
-79.08
-87.42
-96.02
-102.50
-104.42
-99.93
-88.07
-68.56
-39.68
-1.53
43.88
92.92
140.81
182.38
212.91
228.75
227.62
208.71
172.71
122.41
63.47
4.54
-44.23
-74.47
-83.05
-73.86
-56.37
-41.69
-37.64
-45.78
-61.70
-78.14
-88.91
-91.17
-85.48
-74.10
-59.58
-44.41
-31.64
-25.58
-31.09
-51.71
-87.28
-132.50
-177.45
-210.85
-223.82
-212.98
-181.31
-136.75
-88.97
-46.13
-12.52
12.40
32.02
50.34
70.00
91.44
113.26
133.20
149.09
159.65
165.64
168.82
171.50
176.01
184.26
197.10
213.70
230.96
244.24
249.69
244.74
229.10
204.99
176.49
148.12
123.09
101.86
75.78
39.24
-7.80
-58.97
-105.56
-141.14
-163.61
-174.00
-175.47
-171.57
-164.41
-155.68
-147.29
-141.81
-141.43
-146.45
-153.42
-157.54
-151.88
-131.50
-96.49
-52.47
-8.17
28.24
50.60
58.82
58.32
56.28
57.92
64.28
72.47
77.74
77.08
67.51
49.23
25.49
1.76
-15.85
-22.81
-17.64
-2.16
19.21
40.85
57.49
66.08
67.21
63.66
59.21
54.87
51.25
49.49
50.87
56.95
68.51
84.65
102.35
117.35
125.36
122.30
106.90
80.44
46.66
10.26
-24.79
-56.85
-86.86
-117.15
-149.06
-181.32
-210.27
-231.24
-240.57
-237.18
-222.71
-200.24
-172.60
-141.39
-107.25
-71.22
-35.43
-2.92
23.48
42.16
53.21
58.04
58.45
56.04
51.76
46.20
39.90
33.44
27.32
21.76
16.69
11.81
6.80
1.57
-3.61
-8.17
-11.38
-12.64
-11.66
-8.58
-4.03
1.08
5.73
9.05
10.54
10.13
8.18
5.31
2.20
-0.55
-2.52
-3.54
-3.68
-3.22
-2.53
-2.00
-1.89
-2.27
-3.02
-3.90
-4.62
-5.00
-4.93
-4.47
-3.74
-2.91
-2.09
-1.36
-0.76
-0.30
-0.02
-0.01
-0.32
-0.98
-1.90
-2.94
-3.93
-4.69
-5.00
-4.61
-3.26
-0.77
2.78
6.93
10.98
14.24
16.33
17.34
17.69
17.86
18.02
17.93
17.11
15.18
12.22
8.83
5.95
4.39
4.50
5.90
7.61
8.35
7.03
3.12
-3.27
-11.48
-20.76
-30.45
-40.18
-49.58
-58.00
-64.22
-66.50
-62.92
-51.95
-33.15
-7.60
21.92
51.29
75.70
90.81
93.78
84.11
63.83
37.00
8.59
-16.81
-36.06
-47.86
-52.57
-51.53
-46.33
-38.36
-28.67
-18.17
-7.75
1.61
9.07
14.22
17.26
18.92
20.14
21.59
23.42
25.21
26.26
26.01
24.31
21.56
18.45
15.72
13.79
12.74
12.34
12.26
12.22
12.07
11.64
10.71
8.92
5.93
1.64
-3.73
-9.57
-15.07
-19.46
-22.15
-22.81
-21.32
-17.69
-12.15
-5.32
1.73
7.62
11.11
11.45
8.78
4.00
-1.53
-6.48
-10.03
-12.10
-13.07
-13.45
-13.61
-13.66
-13.61
-13.42
-13.16
-13.08
-13.73
-15.46
-18.24
-21.68
-25.05
-27.78
-29.53
-30.30
-30.53
-31.17
-33.01
-36.43
-41.52
-47.97
-55.44
-63.27
-70.28
-74.98
-76.28
-73.42
-66.32
-55.57
-41.62
-26.25
-11.36
2.29
17.29
34.67
53.97
74.38
92.79
107.68
118.59
125.82
130.07
132.00
131.77
129.86
127.08
124.44
122.36
120.04
115.74
108.15
97.25
84.32
71.80
62.27
57.57
57.66
60.60
62.96
61.53
54.18
39.80
18.38
-12.13
-49.56
-88.04
-120.38
-142.43
-153.62
-156.34
-154.70
-153.05
-154.31
-158.03
-163.01
-163.59
-154.93
-134.33
-102.43
-62.84
-20.55
19.83
53.38
75.24
83.52
78.49
63.10
42.17
21.50
6.24
-0.71
1.25
9.64
21.94
35.63
49.71
64.21
79.73
96.62
114.38
131.62
146.37
157.18
159.50
151.81
135.50
114.39
93.18
75.46
62.39
52.66
43.99
34.26
23.51
13.30
5.77
2.13
1.95
3.27
3.62
1.43
-3.24
-8.05
-9.71
-5.33
6.27
23.96
44.72
64.78
80.94
91.33
95.94
95.89
92.82
88.30
83.45
78.90
74.71
70.46
65.26
58.06
47.90
34.41
18.17
0.63
-16.45
-31.94
-45.94
-60.00
-76.18
-96.03
-119.42
-144.38
-167.78
-186.61
-199.11
-205.14
-205.72
-202.14
-195.30
-185.50
-172.98
-158.32
-142.75
-127.84
-114.95
-104.66
-96.65
-89.90
-83.27
-76.04
-68.19
-60.27
-53.01
-46.92
-42.03
-37.92
-34.05
-30.04
-25.91
-21.94
-18.37
-15.10
-11.61
-7.11
-0.99
6.74
15.15
22.53
26.94
26.85
21.72
12.30
0.32
-12.04
-22.77
-30.55
-34.77
-35.42
-32.77
-27.25
-19.43
-10.18
-0.76
7.37
12.87
15.07
14.24
11.62
9.02
8.20
10.23
15.21
22.24
29.65
35.26
36.70
31.81
19.03
-1.94
-29.83
-61.82
-93.90
-121.74
-141.38
-149.55
-143.82
-122.70
-85.98
-35.32
25.36
90.16
151.91
203.32
237.99
251.40
241.83
211.21
165.42
113.61
66.07
31.32
13.37
10.63
17.02
24.82
27.89
23.67
13.22
-0.23
-13.27
-23.45
-29.69
-31.94
-30.74
-27.16
-22.73
-19.35
-18.76
-21.88
-28.12
-35.44
-41.01
-42.34
-38.37
-29.92
-19.36
-9.63
-3.12
-0.89
-2.45
-6.22
-10.26
-12.98
-13.63
-12.23
-9.41
-5.93
-2.50
0.39
2.39
3.26
2.93
1.57
-0.35
-2.22
-3.45
-3.74
-3.22
-2.39
-1.89
-2.21
-3.55
-5.72
-8.37
-11.19
-14.10
-17.24
-20.85
-24.99
-29.38
-33.41
-36.44
-38.15
-38.79
-39.07
-39.84
-41.58
-44.14
-46.85
-48.86
-49.60
-49.03
-47.58
-45.86
-44.45
-43.65
-43.53
-43.88
-44.28
-44.16
-42.94
-40.18
-35.67
-29.33
-20.97
-10.12
3.91
21.55
42.49
65.23
87.27
105.73
118.30
123.88
122.78
116.27
106.09
93.87
81.04
68.78
58.13
49.79
43.95
40.16
37.58
35.36
33.14
31.11
29.82
29.68
30.64
32.14
33.49
34.17
34.13
33.58
32.72
31.48
29.48
26.30
21.81
16.38
10.84
6.17
3.12
1.96
2.31
3.34
4.08
3.76
2.08
-0.78
-4.26
-7.72
-10.67
-12.81
-14.05
-14.37
-13.71
-12.08
-9.59
-6.60
-3.68
-1.43
-0.33
-0.52
-1.75
-3.48
-5.05
-5.94
-5.88
-4.92
-3.36
-1.54
0.21
1.70
2.87
3.73
4.22
4.27
3.78
2.77
1.38
-0.12
-1.49
-2.61
-3.51
-4.30
-5.05
-5.65
-5.86
-5.38
-4.04
-1.94
0.56
2.92
4.61
5.31
4.99
3.95
2.62
1.42
0.55
-0.03
-0.51
-1.05
-1.64
-2.07
-2.07
-1.53
-0.59
0.40
1.09
1.25
0.92
0.31
-0.30
-0.75
-1.02
-1.19
-1.37
-1.62
-1.93
-2.19
-2.28
-2.09
-1.63
-1.05
-0.55
-0.33
-0.41
-0.68
-0.95
-1.10
-1.18
-1.37
-1.86
-2.69
-3.70
-4.52
-4.78
-4.30
-3.13
-1.58
-0.05
1.06
1.51
1.29
0.52
-0.51
-1.54
-2.40
-3.03
-3.46
-3.73
-3.85
-3.83
-3.70
-3.62
-3.77
-4.33
-5.30
-6.52
-7.65
-8.37
-8.51
-8.12
-7.46
-6.82
-6.39
-6.20
-6.14
-6.02
-5.74
-5.28
-4.76
-4.27
-3.88
-3.56
-3.21
-2.75
-2.16
-1.55
-1.11
-0.99
-1.27
-1.84
-2.48
-2.92
-2.98
-2.72
-2.39
-2.38
-2.96
-4.23
-5.99
-7.91
-9.67
-11.08
-12.12
-12.83
-13.24
-13.35
-13.15
-12.72
-12.22
-11.82
-11.60
-11.45
-11.15
-10.47
-9.34
-7.95
-6.64
-5.77
-5.50
-5.70
-5.96
-5.75
-4.67
-2.62
0.10
2.87
5.00
6.10
6.18
5.72
5.37
5.60
6.39
7.26
7.59
7.02
5.78
4.59
4.37
5.65
8.33
11.64
14.56
16.25
16.45
15.50
14.08
12.84
12.12
11.81
11.53
10.83
9.41
7.29
4.71
2.10
-0.10
-1.58
-2.17
-1.93
-1.07
0.07
1.10
1.65
1.48
0.55
-0.98
-2.78
-4.38
-5.39
-5.57
-4.98
-3.93
-2.85
-2.13
-1.92
-2.09
-2.39
-2.53
-2.41
-2.10
-1.74
-1.44
-1.16
-0.80
-0.25
0.44
1.08
1.42
1.30
0.72
-0.15
-1.08
-1.90
-2.48
-2.82
-2.91
-2.76
-2.38
-1.84
-1.29
-0.86
-0.68
-0.75
-0.99
-1.25
-1.37
-1.22
-0.74
0.08
1.23
2.60
4.04
5.33
6.26
6.71
6.68
6.31
5.80
5.33
4.97
4.71
4.51
4.32
4.18
4.11
4.20
4.42
4.71
4.94
4.93
4.61
3.98
3.20
2.49
2.03
1.93
2.12
2.40
2.59
2.56
2.33
2.00
1.69
1.44
1.23
0.94
0.53
0.03
-0.45
-0.75
-0.81
-0.70
-0.59
-0.72
-1.23
-2.10
-3.10
-3.90
-4.18
-3.81
-2.92
-1.82
-0.89
-0.35
-0.20
-0.21
-0.14
0.15
0.59
0.95
1.00
0.66
-0.00
-0.78
-1.46
-1.93
-2.20
-2.35
-2.50
-2.71
-2.95
-3.12
-3.08
-2.72
-2.02
-1.09
-0.10
0.78
1.48
2.05
2.63
3.36
4.24
5.19
6.08
6.84
7.48
8.05
8.59
9.06
9.32
9.21
8.60
7.48
5.97
4.27
2.67
1.40
0.63
0.36
0.44
0.66
0.86
0.94
0.99
1.13
1.48
2.02
2.63
3.10
3.29
3.16
2.79
2.28
1.72
1.10
0.43
-0.27
-0.85
-1.14
-0.99
-0.45
0.24
0.75
0.80
0.29
-0.63
-1.66
-2.50
-2.90
-2.77
-2.17
-1.27
-0.28
0.59
1.18
1.39
1.20
0.66
-0.18
-1.18
-2.16
-2.90
-3.26
-3.17
-2.76
-2.28
-1.96
-1.94
-2.16
-2.42
-2.50
-2.31
-1.86
-1.28
-0.69
-0.18
0.21
0.46
0.53
0.44
0.22
-0.02
-0.16
-0.11
0.12
0.47
0.80
1.02
1.03
0.83
0.46
0.05
-0.24
-0.26
0.06
0.62
1.23
1.65
1.70
1.37
0.79
0.11
-0.59
-1.31
-2.08
-2.91
-3.68
-4.23
-4.40
-4.17
-3.65
-3.07
-2.63
-2.42
-2.40
-2.42
-2.31
-2.00
-1.50
-0.93
-0.43
-0.11
0.01
-0.03
-0.14
-0.26
-0.38
-0.57
-0.91
-1.47
-2.22
-3.04
-3.77
-4.18
-4.13
-3.57
-2.54
-1.22
0.14
1.28
1.97
2.09
1.64
0.75
-0.36
-1.47
-2.42
-3.13
-3.62
-3.93
-4.12
-4.21
-4.20
-4.08
-3.85
-3.52
-3.13
-2.73
-2.35
-2.02
-1.73
-1.50
-1.35
-1.25
-1.22
-1.18
-1.09
-0.86
-0.48
0.03
0.59
1.12
1.54
1.85
2.08
2.30
2.56
2.87
3.15
3.32
3.25
2.91
2.38
1.84
1.52
1.54
1.89
2.41
2.92
3.27
3.42
3.42
3.32
3.11
2.78
2.30
1.75
1.27
0.99
0.96
1.09
1.17
1.04
0.66
0.12
-0.39
-0.72
-0.82
-0.74
-0.57
-0.40
-0.24
-0.12
-0.04
-0.04
-0.12
-0.22
-0.21
0.03
0.51
1.14
1.69
1.97
1.87
1.45
0.91
0.44
0.20
0.19
0.33
0.52
0.71
0.93
1.21
1.56
1.90
2.08
2.01
1.65
1.10
0.52
0.05
-0.25
-0.42
-0.53
-0.64
-0.74
-0.82
-0.85
-0.89
-1.03
-1.32
-1.72
-2.14
-2.39
-2.38
-2.11
-1.73
-1.39
-1.22
-1.22
-1.24
-1.13
-0.78
-0.23
0.35
0.77
0.93
0.84
0.67
0.62
0.81
1.24
1.72
2.05
2.08
1.82
1.42
1.09
0.94
1.00
1.15
1.29
1.37
1.41
1.42
1.42
1.35
1.17
0.87
0.51
0.17
-0.11
-0.40
-0.81
-1.43
-2.22
-3.03
-3.61
-3.77
-3.47
-2.80
-1.98
-1.23
-0.73
-0.51
-0.48
-0.52
-0.49
-0.36
-0.18
-0.06
-0.09
-0.33
-0.73
-1.19
-1.61
-1.92
-2.11
-2.28
-2.56
-3.08
-3.91
-5.04
-6.35
-7.66
-8.78
-9.60
-10.09
-10.30
-10.32
-10.20
-9.98
-9.74
-9.56
-9.56
-9.80
-10.23
-10.71
-11.02
-10.99
-10.59
-9.95
-9.32
-8.93
-8.87
-9.06
-9.29
-9.25
-8.72
-7.56
-5.81
-3.61
-1.18
1.27
3.60
5.76
7.74
9.56
11.23
12.75
14.22
15.80
17.63
19.84
22.38
25.08
27.67
29.87
31.58
32.77
33.56
33.99
34.08
33.70
32.69
30.97
28.53
25.52
22.18
18.76
15.43
12.33
9.44
6.71
4.12
1.65
-0.65
-2.77
-4.71
-6.49
-8.14
-9.57
-10.62
-11.12
-10.97
-10.31
-9.49
-8.93
-8.91
-9.42
-10.18
-10.73
-10.78
-10.32
-9.57
-8.87
-8.40
-8.13
-7.87
-7.45
-6.86
-6.18
-5.48
-4.66
-3.49
-1.79
0.39
2.68
4.51
5.37
5.06
3.81
2.13
0.61
-0.36
-0.66
-0.45
-0.02
0.38
0.56
0.48
0.20
-0.23
-0.73
-1.27
-1.84
-2.40
-2.85
-3.06
-2.93
-2.43
-1.67
-0.87
-0.30
-0.13
-0.38
-0.90
-1.40
-1.56
-1.21
-0.34
0.87
2.14
3.15
3.69
3.67
3.19
2.46
1.73
1.22
0.96
0.89
0.83
0.66
0.36
0.02
-0.21
-0.27
-0.20
-0.18
-0.37
-0.80
-1.35
-1.74
-1.75
-1.30
-0.57
0.11
0.40
0.14
-0.60
-1.56
-2.47
-3.14
-3.56
-3.78
-3.89
-3.90
-3.81
-3.67
-3.56
-3.67
-4.13
-4.94
-5.92
-6.76
-7.15
-6.95
-6.26
-5.43
-4.86
-4.87
-5.57
-6.80
-8.22
-9.46
-10.29
-10.66
-10.64
-10.32
-9.69
-8.66
-7.15
-5.29
-3.43
-2.02
-1.45
-1.79
-2.75
-3.78
-4.30
-3.97
-2.78
-1.02
0.88
2.59
3.89
4.75
5.18
5.24
4.98
4.50
3.92
3.41
3.12
3.04
3.12
3.20
3.16
3.00
2.82
2.82
3.13
3.82
4.85
6.08
7.32
8.41
9.18
9.53
9.45
9.01
8.38
7.72
7.18
6.80
6.55
6.34
6.06
5.63
4.98
4.05
2.83
1.40
-0.03
-1.20
-1.83
-1.81
-1.20
-0.24
0.74
1.46
1.77
1.65
1.22
0.64
0.09
-0.32
-0.54
-0.58
-0.56
-0.61
-0.81
-1.18
-1.61
-1.98
-2.22
-2.31
-2.22
-1.96
-1.47
-0.80
-0.04
0.57
0.76
0.40
-0.49
-1.64
-2.70
-3.36
-3.47
-3.10
-2.44
-1.78
-1.33
-1.20
-1.29
-1.42
-1.35
-0.97
-0.37
0.17
0.34
-0.04
-0.86
-1.84
-2.61
-2.97
-2.96
-2.82
-2.84
-3.19
-3.86
-4.64
-5.30
-5.66
-5.68
-5.45
-5.07
-4.64
-4.15
-3.54
-2.76
-1.81
-0.86
-0.10
0.28
0.24
-0.06
-0.32
-0.26
0.18
0.82
1.36
1.52
1.23
0.67
0.12
-0.17
-0.14
0.11
0.41
0.62
0.72
0.75
0.74
0.69
0.54
0.31
0.07
-0.05
-0.00
0.22
0.48
0.65
0.63
0.40
0.00
-0.52
-1.14
-1.86
-2.62
-3.36
-4.01
-4.49
-4.82
-5.04
-5.18
-5.22
-5.13
-4.87
-4.46
-3.94
-3.34
-2.70
-2.01
-1.26
-0.52
0.15
0.64
0.93
1.06
1.12
1.19
1.28
1.32
1.24
1.01
0.72
0.48
0.38
0.41
0.51
0.54
0.42
0.13
-0.30
-0.84
-1.45
-2.08
-2.63
-2.96
-2.92
-2.47
-1.68
-0.78
-0.05
0.31
0.21
-0.24
-0.82
-1.29
-1.49
-1.37
-1.01
-0.56
-0.12
0.25
0.59
0.94
1.29
1.56
1.65
1.53
1.24
0.91
0.65
0.50
0.39
0.22
-0.08
-0.48
-0.84
-1.02
-0.91
-0.49
0.15
0.84
1.43
1.80
1.90
1.78
1.53
1.24
0.93
0.57
0.14
-0.35
-0.76
-0.99
-0.94
-0.65
-0.30
-0.05
-0.03
-0.19
-0.40
-0.50
-0.44
-0.28
-0.14
-0.13
-0.25
-0.40
-0.42
-0.22
0.24
0.89
1.62
2.34
2.97
3.47
3.82
3.99
3.97
3.77
3.40
2.93
2.44
2.00
1.70
1.59
1.65
1.82
2.03
2.19
2.28
2.33
2.42
2.63
2.94
3.26
3.43
3.32
2.93
2.35
1.77
1.38
1.24
1.28
1.32
1.22
0.89
0.35
-0.28
-0.88
-1.37
-1.73
-1.98
-2.10
-2.09
-1.92
-1.61
-1.20
-0.80
-0.50
-0.37
-0.39
-0.49
-0.53
-0.42
-0.09
0.42
0.99
1.47
1.71
1.68
1.45
1.15
0.94
0.92
1.09
1.34
1.54
1.58
1.46
1.24
1.04
0.94
0.96
1.03
1.09
1.08
0.99
0.88
0.80
0.78
0.76
0.66
0.43
0.09
-0.26
-0.55
-0.75
-0.91
-1.14
-1.52
-2.00
-2.45
-2.73
-2.71
-2.39
-1.85
-1.22
-0.59
-0.07
0.31
0.51
0.50
0.31
-0.01
-0.33
-0.55
-0.63
-0.55
-0.35
-0.08
0.23
0.55
0.83
1.01
1.02
0.85
0.57
0.33
0.25
0.40
0.74
1.13
1.42
1.49
1.30
0.91
0.44
-0.02
-0.36
-0.59
-0.70
-0.75
-0.78
-0.82
-0.86
-0.88
-0.86
-0.80
-0.76
-0.80
-0.94
-1.18
-1.41
-1.54
-1.47
-1.18
-0.76
-0.32
0.01
0.16
0.15
0.03
-0.09
-0.14
-0.11
0.01
0.17
0.33
0.48
0.65
0.86
1.14
1.44
1.69
1.79
1.70
1.46
1.20
1.03
1.06
1.27
1.53
1.69
1.65
1.42
1.09
0.81
0.62
0.49
0.31
-0.02
-0.51
-1.08
-1.58
-1.88
-1.94
-1.82
-1.63
-1.50
-1.49
-1.57
-1.68
-1.72
-1.65
-1.44
-1.16
-0.90
-0.76
-0.74
-0.79
-0.80
-0.68
-0.42
-0.05
0.34
0.71
1.04
1.36
1.61
1.72
1.59
1.19
0.62
0.11
-0.12
0.05
0.51
0.99
1.18
0.92
0.30
-0.41
-0.88
-0.92
-0.53
0.08
0.63
0.89
0.78
0.33
-0.33
-1.06
-1.73
-2.25
-2.56
-2.65
-2.53
-2.26
-1.92
-1.57
-1.24
-0.96
-0.72
-0.51
-0.31
-0.07
0.23
0.60
0.99
1.29
1.45
1.43
1.26
1.02
0.82
0.71
0.70
0.77
0.90
1.08
1.29
1.49
1.62
1.62
1.46
1.18
0.88
0.68
0.63
0.73
0.90
1.02
0.99
0.80
0.52
0.31
0.28
0.48
0.84
1.18
1.32
1.19
0.83
0.43
0.18
0.17
0.35
0.57
0.68
0.62
0.50
0.47
0.70
1.18
1.76
2.18
2.24
1.88
1.25
0.57
0.09
-0.09
-0.02
0.14
0.22
0.14
-0.04
-0.23
-0.31
-0.26
-0.16
-0.12
-0.25
-0.57
-1.01
-1.46
-1.80
-1.98
-2.01
-2.00
-2.03
-2.19
-2.46
-2.80
-3.11
-3.34
-3.49
-3.60
-3.72
-3.82
-3.84
-3.65
-3.18
-2.42
-1.53
-0.71
-0.14
0.11
0.10
0.01
-0.02
0.09
0.29
0.43
0.39
0.13
-0.26
-0.59
-0.68
-0.48
-0.06
0.38
0.66
0.66
0.43
0.15
0.00
0.07
0.28
0.46
0.45
0.22
-0.10
-0.30
-0.23
0.11
0.52
0.76
0.63
0.10
-0.64
-1.32
-1.72
-1.73
-1.41
-0.88
-0.28
0.30
0.84
1.33
1.73
1.97
1.95
1.65
1.17
0.66
0.30
0.20
0.35
0.65
0.93
1.11
1.17
1.19
1.27
1.45
1.69
1.86
1.86
1.60
1.11
0.53
0.00
-0.34
-0.49
-0.52
-0.56
-0.69
-0.90
-1.10
-1.19
-1.17
-1.09
-1.11
-1.34
-1.79
-2.35
-2.78
-2.92
-2.69
-2.21
-1.69
-1.34
-1.23
-1.25
-1.17
-0.78
-0.06
0.82
1.48
1.62
1.12
0.16
-0.85
-1.51
-1.59
-1.12
-0.36
0.41
0.97
1.28
1.42
1.48
1.48
1.41
1.20
0.86
0.47
0.17
0.09
0.26
0.63
1.02
1.26
1.18
0.76
0.09
-0.66
-1.32
-1.80
-2.08
-2.22
-2.30
-2.36
-2.41
-2.43
-2.36
-2.16
-1.80
-1.31
-0.73
-0.13
0.38
0.78
1.07
1.28
1.45
1.55
1.53
1.37
1.14
0.97
1.00
1.31
1.77
2.18
2.29
1.99
1.39
0.73
0.32
0.32
0.69
1.18
1.49
1.39
0.87
0.13
-0.55
-0.91
-0.90
-0.67
-0.45
-0.45
-0.74
-1.23
-1.74
-2.12
-2.33
-2.44
-2.59
-2.82
-3.10
-3.30
-3.26
-2.93
-2.35
-1.65
-1.00
-0.49
-0.15
0.12
0.41
0.75
1.12
1.41
1.50
1.36
1.05
0.72
0.50
0.50
0.67
0.90
1.06
1.10
1.08
1.08
1.18
1.36
1.52
1.52
1.31
0.94
0.52
0.18
-0.01
-0.11
-0.23
-0.46
-0.80
-1.17
-1.45
-1.56
-1.47
-1.26
-1.04
-0.94
-1.05
-1.38
-1.85
-2.32
-2.62
-2.61
-2.29
-1.79
-1.33
-1.07
-1.03
-1.08
-0.99
-0.63
-0.02
0.62
1.07
1.16
0.93
0.58
0.31
0.26
0.40
0.61
0.79
0.90
1.02
1.26
1.64
2.09
2.43
2.51
2.26
1.74
1.13
0.63
0.35
0.27
0.31
0.33
0.27
0.12
-0.10
-0.35
-0.63
-0.98
-1.40
-1.85
-2.22
-2.41
-2.34
-2.01
-1.51
-0.95
-0.44
-0.02
0.33
0.65
0.98
1.34
1.73
2.10
2.41
2.58
2.61
2.51
2.36
2.28
2.30
2.40
2.47
2.42
2.21
1.95
1.83
1.99
2.46
3.09
3.61
3.74
3.36
2.57
1.62
0.81
0.39
0.42
0.79
1.28
1.66
1.82
1.77
1.59
1.38
1.13
0.78
0.27
-0.41
-1.13
-1.69
-1.96
-1.93
-1.70
-1.48
-1.40
-1.47
-1.61
-1.68
-1.61
-1.39
-1.06
-0.69
-0.32
0.02
0.28
0.39
0.31
0.03
-0.42
-0.92
-1.35
-1.60
-1.58
-1.27
-0.73
-0.06
0.58
1.04
1.24
1.20
0.98
0.69
0.41
0.18
-0.02
-0.23
-0.48
-0.75
-1.00
-1.14
-1.14
-1.04
-0.95
-1.02
-1.33
-1.87
-2.49
-2.98
-3.17
-3.00
-2.56
-2.00
-1.46
-0.99
-0.61
-0.30
-0.06
0.10
0.13
0.02
-0.24
-0.63
-1.11
-1.61
-2.05
-2.34
-2.46
-2.41
-2.29
-2.21
-2.26
-2.49
-2.87
-3.34
-3.85
-4.40
-4.95
-5.38
-5.53
-5.21
-4.38
-3.18
-1.95
-1.06
-0.76
-1.06
-1.75
-2.52
-3.13
-3.49
-3.65
-3.64
-3.45
-3.04
-2.41
-1.65
-0.90
-0.16
0.78
2.35
4.88
8.35
12.22
15.61
17.66
17.94
16.61
14.27
11.60
9.01
6.56
4.12
1.61
-0.83
-2.91
-4.41
-5.32
-5.87
-6.37
-6.99
-7.66
-8.10
-7.93
-6.93
-5.06
-2.59
0.11
2.62
4.69
6.30
7.57
8.64
9.58
10.35
10.85
11.03
11.03
11.08
11.45
12.28
13.56
15.19
17.07
19.15
21.36
23.55
25.42
26.59
26.78
25.90
24.12
21.80
19.30
16.87
14.59
12.32
9.80
6.75
3.01
-1.41
-6.27
-11.14
-15.52
-18.99
-21.33
-22.56
-22.97
-22.92
-22.74
-22.65
-22.61
-22.49
-22.07
-21.21
-19.87
-18.11
-16.10
-14.03
-12.03
-10.19
-8.52
-6.98
-5.52
-4.11
-2.77
-1.51
-0.40
0.57
1.43
2.26
3.07
3.81
4.34
4.49
4.16
3.41
2.41
1.46
0.80
0.58
0.77
1.20
1.61
1.81
1.67
1.16
0.37
-0.59
-1.60
-2.51
-3.27
-3.80
-4.10
-4.15
-3.89
-3.33
-2.54
-1.68
-0.97
-0.60
-0.64
-1.00
-1.47
-1.88
-2.14
-2.30
-2.44
-2.63
-2.82
-2.90
-2.74
-2.34
-1.81
-1.34
-1.16
-1.38
-1.97
-2.76
-3.48
-3.90
-3.93
-3.70
-3.44
-3.38
-3.61
-4.02
-4.36
-4.39
-4.02
-3.37
-2.71
-2.29
-2.22
-2.34
-2.36
-1.98
-1.03
0.38
1.91
3.13
3.77
3.79
3.47
3.21
3.30
3.83
4.62
5.43
6.06
6.51
6.88
7.23
7.50
7.54
7.24
6.62
5.87
5.25
4.89
4.76
4.71
4.56
4.31
4.16
4.40
5.30
6.80
8.46
9.46
8.91
6.14
1.04
-5.83
-13.39
-20.43
-26.07
-29.96
-32.30
-33.56
-34.14
-34.15
-33.29
-31.07
-26.97
-20.83
-12.96
-4.25
3.98
10.36
13.90
14.35
12.33
9.00
5.65
3.19
1.92
1.62
1.85
2.24
2.60
2.88
3.04
2.97
2.50
1.59
0.38
-0.81
-1.59
-1.70
-1.19
-0.38
0.23
0.16
-0.78
-2.45
-4.33
-5.76
-6.18
-5.38
-3.58
-1.35
0.69
2.07
2.68
2.68
2.42
2.20
2.17
2.34
2.67
3.04
3.39
3.63
3.69
3.51
3.12
2.62
2.19
1.97
2.02
2.28
2.58
2.76
2.69
2.35
1.80
1.17
0.58
0.14
-0.09
-0.07
0.20
0.69
1.28
1.83
2.16
2.19
1.89
1.41
0.91
0.53
0.28
0.10
-0.14
-0.50
-0.90
-1.25
-1.43
-1.46
-1.44
-1.52
-1.75
-2.09
-2.39
-2.49
-2.32
-1.98
-1.64
-1.50
-1.64
-2.04
-2.53
-2.93
-3.08
-2.91
-2.45
-1.82
-1.17
-0.65
-0.37
-0.32
-0.41
-0.50
-0.46
-0.23
0.13
0.49
0.71
0.76
0.71
0.71
0.85
1.13
1.46
1.74
1.96
2.15
2.38
2.68
2.95
3.02
2.77
2.21
1.54
1.05
0.95
1.28
1.86
2.35
2.44
1.97
0.99
-0.27
-1.54
-2.61
-3.41
-3.97
-4.38
-4.66
-4.79
-4.69
-4.30
-3.64
-2.82
-2.06
-1.57
-1.46
-1.70
-2.10
-2.37
-2.31
-1.86
-1.12
-0.34
0.28
0.65
0.87
1.08
1.45
1.98
2.60
3.15
3.54
3.77
3.92
4.07
4.24
4.42
4.55
4.63
4.66
4.66
4.62
4.49
4.23
3.90
3.68
3.76
4.29
5.23
6.33
7.28
7.81
7.83
7.41
6.71
5.84
4.91
3.99
3.21
2.76
2.80
3.42
4.48
5.73
6.82
7.51
7.70
7.45
6.86
6.01
4.84
3.25
1.16
-1.35
-4.05
-6.52
-8.39
-9.37
-9.41
-8.70
-7.58
-6.38
-5.32
-4.45
-3.65
-2.79
-1.80
-0.72
0.31
1.20
1.91
2.52
3.15
3.85
4.59
5.21
5.54
5.47
5.05
4.40
3.67
2.93
2.16
1.27
0.22
-0.94
-2.05
-2.90
-3.36
-3.41
-3.19
-2.91
-2.77
-2.87
-3.17
-3.54
-3.87
-4.04
-4.06
-3.98
-3.88
-3.80
-3.76
-3.76
-3.83
-4.00
-4.34
-4.83
-5.43
-5.97
-6.30
-6.29
-5.97
-5.52
-5.29
-5.57
-6.52
-8.05
-9.83
-11.42
-12.44
-12.82
-12.76
-12.72
-13.20
-14.46
-16.43
-18.68
-20.61
-21.76
-22.11
-22.16
-22.75
-24.65
-28.11
-32.58
-36.88
-39.56
-39.38
-35.57
-27.94
-16.99
-3.97
9.01
19.21
23.95
21.52
12.11
-1.97
-17.05
-29.47
-36.99
-39.49
-38.64
-36.75
-35.61
-35.83
-36.86
-37.66
-37.33
-35.53
-32.39
-28.23
-23.26
-17.50
-10.95
-3.93
2.76
7.92
10.32
9.21
4.66
-2.33
-10.19
-17.34
-22.71
-26.13
-28.20
-30.00
-32.57
-36.46
-41.34
-46.00
-48.46
-46.39
-37.73
-21.27
2.81
32.89
66.20
99.54
130.08
155.91
176.27
191.25
201.46
207.69
210.89
212.22
213.06
214.82
218.41
223.64
228.86
231.11
226.73
212.29
185.68
146.98
98.90
46.48
-3.98
-46.58
-77.36
-95.27
-102.14
-101.53
-97.26
-92.13
-87.46
-83.47
-79.88
-76.60
-73.74
-71.44
-69.49
-67.29
-64.17
-59.81
-54.45
-48.84
-43.90
-40.28
-38.05
-36.68
-35.30
-33.13
-29.84
-25.73
-21.60
-18.45
-16.95
-17.24
-18.80
-20.77
-22.27
-22.79
-22.33
-21.26
-20.08
-19.11
-18.33
-17.52
-16.40
-14.93
-13.32
-11.93
-11.07
-10.76
-10.75
-10.61
-10.00
-8.81
-7.21
-5.46
-3.74
-2.03
-0.19
1.89
4.10
6.14
7.65
8.49
8.86
9.32
10.53
12.97
16.77
21.59
26.72
31.26
34.32
35.29
34.04
30.99
26.97
22.98
19.85
18.01
17.38
17.40
17.26
16.13
13.31
8.38
1.30
-7.59
-17.67
-28.09
-37.98
-46.55
-53.14
-57.15
-58.12
-55.70
-49.84
-40.93
-29.87
-17.96
-6.67
2.78
9.56
13.23
13.53
10.18
2.99
-7.59
-20.06
-31.79
-39.57
-40.83
-34.75
-22.72
-8.09
4.97
12.84
13.61
7.54
-2.93
-14.13
-22.27
-24.73
-21.00
-12.71
-2.97
4.97
9.02
8.87
5.77
1.75
-1.13
-1.34
1.92
8.50
17.18
25.61
30.78
30.08
22.48
9.28
-6.19
-19.84
-28.55
-31.40
-29.85
-26.76
-24.91
-25.92
-29.91
-36.03
-43.30
-51.06
-58.91
-66.16
-71.52
-73.10
-69.08
-58.65
-42.61
-23.20
-3.43
14.05
27.87
38.31
46.98
55.89
66.47
78.70
90.90
100.26
103.85
99.95
88.90
73.24
56.92
43.97
37.05
36.56
40.60
45.60
47.50
42.87
29.87
8.66
-18.59
-48.31
-76.42
-99.47
-115.39
-123.81
-125.72
-122.77
-116.62
-108.60
-99.73
-90.86
-82.57
-74.96
-67.40
-58.79
-48.15
-35.47
-22.05
-10.15
-2.09
0.90
-0.68
-4.73
-8.38
-9.08
-5.54
1.81
10.97
18.95
22.72
20.22
11.12
-3.09
-19.47
-34.62
-45.57
-50.27
-47.60
-37.13
-19.05
5.70
35.13
66.24
95.66
120.69
140.13
154.25
163.82
168.82
167.77
158.42
139.46
112.16
80.94
52.16
31.66
22.61
24.36
33.07
43.46
50.52
50.59
41.52
22.47
-6.10
-42.18
-81.90
-119.88
-150.31
-168.50
-172.30
-162.76
-143.63
-120.14
-97.39
-79.00
-66.60
-59.88
-57.21
-56.27
-54.61
-50.08
-41.35
-28.38
-12.65
3.07
15.70
22.88
24.05
20.59
15.24
10.90
9.40
11.03
14.62
18.34
20.52
20.10
16.82
11.03
3.60
-4.20
-10.78
-14.52
-14.00
-8.41
2.25
17.08
34.47
52.48
69.23
83.40
94.52
103.02
109.76
115.23
118.86
118.71
112.32
98.09
76.82
52.13
29.60
14.66
10.51
16.78
29.74
43.64
52.60
52.08
39.82
16.01
-16.91
-54.88
-92.93
-126.27
-151.21
-165.70
-169.37
-163.09
-148.52
-127.91
-104.10
-80.45
-60.35
-46.34
-39.16
-37.32
-37.51
-35.85
-29.44
-17.54
-1.90
14.01
26.41
32.65
32.17
26.49
18.41
10.88
5.92
4.21
5.26
7.98
11.28
14.38
16.76
17.95
17.47
14.94
10.29
4.05
-2.72
-8.56
-11.99
-11.81
-7.32
1.56
14.28
29.72
46.39
62.75
77.55
90.02
99.75
106.45
109.55
108.15
101.34
88.94
72.08
53.36
36.22
23.88
18.28
19.55
26.09
35.27
44.17
50.10
50.97
45.34
32.63
13.19
-11.50
-39.03
-66.38
-90.56
-109.11
-120.40
-123.79
-119.57
-108.96
-93.87
-76.66
-59.74
-45.10
-33.99
-26.76
-22.92
-21.35
-20.54
-18.94
-15.39
-9.47
-1.74
6.39
13.14
17.01
17.40
14.76
10.41
5.97
2.90
2.11
3.94
8.15
13.98
20.15
25.06
27.13
25.36
19.77
11.52
2.63
-4.61
-8.25
-7.20
-1.37
8.32
20.17
32.14
42.28
49.28
52.93
54.17
54.73
56.28
59.43
63.06
64.43
60.15
47.85
27.65
2.79
-21.12
-38.10
-44.04
-38.36
-24.12
-6.61
8.68
18.00
19.99
15.38
5.97
-6.40
-20.25
-34.53
-48.35
-60.94
-71.62
-79.91
-85.54
-88.30
-87.95
-84.23
-76.95
-66.27
-52.86
-37.86
-22.80
-9.27
1.34
8.25
11.49
11.96
11.19
10.73
11.64
13.97
16.81
18.79
18.70
16.25
12.08
7.58
4.14
2.61
3.03
4.79
7.08
9.21
10.72
11.21
10.29
7.53
2.78
-3.48
-10.03
-15.14
-17.03
-14.48
-7.12
4.53
19.23
35.35
51.07
64.67
74.75
80.53
81.94
79.52
74.02
65.90
55.22
41.98
26.89
12.02
0.62
-3.95
0.17
12.09
28.22
43.55
53.62
56.19
51.56
41.59
28.25
12.45
-6.02
-27.51
-51.38
-75.42
-96.17
-110.16
-115.20
-111.20
-100.18
-85.44
-70.42
-57.69
-48.41
-42.40
-38.68
-36.10
-33.82
-31.38
-28.43
-24.40
-18.44
-9.79
1.63
14.66
26.97
35.67
38.49
34.80
26.07
15.41
6.38
1.64
2.01
6.36
12.20
16.77
17.92
14.63
7.06
-3.69
-15.93
-27.65
-36.75
-41.30
-39.84
-31.80
-17.84
0.13
19.25
36.45
49.33
56.91
59.90
60.24
60.15
60.99
62.63
63.56
61.80
56.02
46.40
34.67
23.48
15.33
11.56
12.03
15.16
18.64
19.92
16.77
7.65
-7.88
-28.75
-52.30
-74.63
-91.64
-100.31
-99.72
-91.22
-77.72
-62.40
-47.62
-34.50
-23.31
-14.20
-7.60
-4.14
-3.99
-6.27
-9.09
-10.08
-7.50
-0.99
8.14
17.39
24.10
26.40
23.93
17.82
10.24
3.63
0.03
0.50
4.99
12.34
20.47
26.77
28.66
24.38
13.60
-2.25
-20.17
-36.46
-47.61
-51.25
-46.63
-34.86
-18.80
-2.65
9.00
12.67
7.48
-3.98
-16.31
-23.24
-20.46
-7.58
11.49
30.36
42.88
45.72
39.28
26.99
13.40
2.40
-3.86
-4.97
-1.68
4.77
13.06
22.01
30.54
37.74
42.79
45.05
44.01
39.42
31.61
21.76
11.92
4.52
1.42
2.98
7.71
12.82
15.45
13.90
8.24
-0.09
-9.24
-17.99
-25.99
-33.50
-40.64
-46.96
-51.53
-53.39
-52.09
-47.94
-41.74
-34.39
-26.57
-18.71
-11.16
-4.43
0.73
3.61
3.77
1.53
-2.09
-5.56
-7.30
-6.28
-2.26
4.20
12.01
19.91
26.92
32.47
36.54
39.63
42.54
45.95
49.92
53.62
55.31
53.01
45.39
32.66
16.97
2.09
-7.60
-8.56
0.63
18.45
40.54
60.75
72.87
72.57
58.83
34.18
3.83
-26.22
-51.16
-68.63
-78.74
-83.15
-83.65
-81.24
-76.00
-67.61
-56.14
-42.45
-28.08
-14.66
-3.28
5.75
12.80
18.40
22.73
25.36
25.43
22.17
15.41
5.84
-4.97
-15.10
-22.84
-27.20
-28.03
-25.92
-21.80
-16.78
-11.92
-8.22
-6.55
-7.34
-10.40
-14.79
-19.08
-21.73
-21.60
-18.34
-12.34
-4.59
3.78
11.83
19.00
25.21
30.77
36.18
41.93
48.15
54.36
59.28
60.91
57.07
46.38
29.24
8.35
-11.64
-25.50
-29.34
-22.16
-6.41
12.81
29.65
39.53
40.49
33.25
20.35
4.75
-11.23
-26.19
-39.51
-50.75
-59.33
-64.63
-66.29
-64.60
-60.60
-55.73
-51.28
-47.95
-45.73
-44.15
-42.74
-41.34
-40.09
-39.12
-38.28
-37.09
-35.08
-32.25
-29.33
-27.63
-28.43
-32.33
-38.84
-46.55
-53.61
-58.39
-59.87
-57.73
-52.16
-43.61
-32.62
-19.82
-6.00
7.86
20.61
31.13
38.51
42.36
42.89
40.89
37.47
33.65
30.20
27.56
25.99
25.69
26.77
29.08
32.09
35.06
37.37
38.94
40.36
42.51
45.99
50.51
54.91
57.65
57.56
54.42
48.99
42.42
35.68
29.08
22.47
15.64
8.85
2.91
-1.22
-3.02
-2.80
-1.64
-0.73
-0.63
-0.94
-0.54
1.64
5.88
11.38
16.64
20.24
21.52
20.75
18.89
16.89
15.28
14.05
12.89
11.50
9.85
8.04
6.16
4.13
1.72
-1.24
-4.70
-8.26
-11.31
-13.25
-13.76
-12.88
-11.05
-8.86
-6.89
-5.69
-5.59
-6.83
-9.45
-13.32
-18.16
-23.67
-29.66
-36.04
-42.66
-49.06
-54.44
-57.91
-58.97
-57.89
-55.85
-54.48
-55.16
-58.52
-64.15
-70.82
-76.94
-80.89
-81.19
-76.62
-66.28
-49.89
-28.05
-2.16
25.83
54.03
81.11
106.30
129.33
149.90
167.43
181.05
189.83
193.24
191.44
185.39
176.82
167.94
161.04
157.98
159.43
164.33
169.71
171.12
163.66
143.42
108.91
62.09
8.40
-44.41
-88.45
-117.99
-131.15
-130.06
-119.61
-105.32
-91.49
-80.25
-71.94
-66.05
-62.12
-60.00
-59.53
-60.02
-60.27
-58.95
-55.37
-49.78
-43.27
-37.21
-32.67
-29.94
-28.59
-27.75
-26.58
-24.62
-21.91
-18.91
-16.27
-14.53
-13.84
-13.98
-14.40
-14.51
-13.86
-12.34
-10.19
-7.86
-5.87
-4.56
-4.02
-4.04
-4.25
-4.25
-3.77
-2.82
-1.66
-0.67
-0.16
-0.26
-0.80
-1.45
-1.86
-1.85
-1.52
-1.14
-0.96
-1.09
-1.38
-1.57
-1.46
-1.08
-0.62
-0.34
-0.38
-0.66
-0.98
-1.15
-1.14
-1.02
-0.90
-0.75
-0.39
0.40
1.68
3.30
4.87
5.96
6.33
6.00
5.24
4.41
3.80
3.50
3.45
3.52
3.59
3.69
3.95
4.50
5.45
6.72
8.12
9.31
10.00
10.00
9.33
8.21
6.90
5.68
4.61
3.65
2.59
1.28
-0.36
-2.21
-4.05
-5.63
-6.88
-7.94
-9.10
-10.60
-12.47
-14.43
-16.01
-16.80
-16.70
-15.98
-15.14
-14.64
-14.68
-15.14
-15.65
-15.86
-15.58
-14.84
-13.79
-12.63
-11.48
-10.41
-9.49
-8.72
-8.12
-7.65
-7.26
-6.88
-6.53
-6.25
-6.11
-6.20
-6.49
-6.82
-6.97
-6.72
-5.99
-4.95
-3.92
-3.33
-3.45
-4.31
-5.63
-6.96
-7.86
-8.07
-7.61
-6.75
-5.82
-5.03
-4.42
-3.89
-3.23
-2.32
-1.13
0.17
1.16
1.41
0.64
-1.19
-3.88
-6.93
-9.50
-10.63
-9.41
-5.61
0.17
6.35
10.54
10.23
3.75
-9.12
-27.26
-48.50
-70.47
-90.44
-105.00
-110.72
-105.01
-86.71
-56.61
-17.56
26.37
69.69
107.07
134.21
148.10
147.37
133.67
112.04
89.77
74.68
70.73
77.26
89.49
99.80
100.03
85.04
54.26
11.07
-38.39
-89.89
-141.21
-187.12
-220.21
-235.22
-231.99
-214.75
-195.32
-174.95
-153.47
-130.59
-105.72
-76.39
-43.42
-9.32
22.46
48.30
66.45
75.70
76.95
73.09
67.06
60.15
52.53
43.93
34.29
24.74
15.93
8.52
3.33
0.74
0.34
1.96
5.98
13.18
24.63
39.81
56.86
73.08
85.51
91.72
91.09
84.85
75.47
65.74
57.19
50.06
43.73
37.36
30.42
23.10
16.06
10.01
5.37
1.98
-0.58
-2.69
-4.41
-5.45
-5.35
-3.71
-0.49
3.89
8.58
12.60
15.11
15.78
14.74
12.48
9.55
6.33
3.05
-0.07
-2.63
-4.04
-3.76
-1.63
1.95
6.10
9.82
12.42
13.65
13.63
12.49
10.24
6.84
2.47
-2.27
-6.43
-9.03
-9.48
-7.90
-5.03
-1.86
0.77
2.50
3.54
4.42
5.70
7.63
9.98
12.17
13.47
13.45
12.20
10.35
8.87
8.65
10.03
12.67
15.61
17.63
17.65
15.03
9.74
2.22
-6.75
-16.25
-25.38
-33.31
-39.35
-43.04
-44.20
-43.00
-40.03
-36.02
-31.60
-27.07
-22.26
-16.76
-10.38
-3.57
2.34
5.64
5.06
0.78
-5.34
-10.28
-11.29
-7.11
1.34
11.46
20.20
25.37
26.27
23.53
18.41
12.10
5.48
-0.68
-5.52
-8.08
-7.68
-4.31
1.19
7.38
12.67
15.77
16.11
13.90
9.86
4.91
-0.21
-5.15
-9.88
-14.41
-18.51
-21.50
-22.44
-20.48
-15.40
-7.95
0.30
7.39
11.61
12.06
8.76
2.51
-5.44
-13.77
-21.32
-27.27
-31.24
-33.34
-34.10
-34.31
-34.74
-35.84
-37.55
-39.47
-41.14
-42.33
-43.22
-44.45
-46.97
-51.62
-58.57
-66.84
-74.13
-77.30
-73.51
-61.59
-42.88
-21.13
-1.09
13.28
20.44
21.67
20.30
20.03
23.28
30.41
39.92
49.49
57.17
62.18
64.83
66.08
66.74
67.16
67.27
67.03
66.58
66.03
64.68
60.72
51.73
36.16
15.03
-7.33
-24.44
-30.30
-22.29
-2.57
22.76
46.37
62.69
69.63
68.30
61.27
50.72
37.71
22.57
5.89
-10.91
-25.81
-37.07
-44.03
-47.20
-47.83
-47.19
-45.97
-44.32
-42.13
-39.44
-36.77
-35.12
-35.55
-38.54
-43.35
-47.83
-48.93
-43.91
-31.70
-13.72
6.54
24.74
37.47
43.38
43.23
38.97
32.48
24.79
16.15
6.69
-2.96
-11.49
-17.30
-19.21
-17.01
-11.52
-4.37
2.63
8.03
11.12
11.96
11.27
9.90
8.54
7.47
6.52
5.39
3.83
1.81
-0.63
-3.55
-7.21
-11.84
-17.28
-22.67
-26.62
-27.75
-25.40
-20.12
-13.49
-7.40
-3.20
-1.07
-0.25
0.40
1.61
3.27
4.67
5.05
4.26
2.92
2.20
3.16
6.23
10.93
16.02
20.02
21.65
20.16
15.37
7.74
-1.76
-11.58
-19.80
-24.55
-24.59
-19.81
-11.34
-1.17
8.50
16.03
20.61
22.26
21.44
18.73
14.74
10.06
5.44
1.68
-0.54
-0.90
0.45
2.90
5.56
7.55
8.19
7.33
5.30
2.90
1.10
0.68
1.90
4.41
7.34
9.51
9.77
7.41
2.54
-3.59
-8.77
-10.48
-6.88
2.20
15.11
28.86
40.31
47.40
49.68
48.14
44.42
40.01
35.84
32.35
29.76
28.26
27.93
28.54
29.44
29.73
28.65
25.90
21.85
17.41
13.65
11.33
10.40
9.82
7.85
2.76
-6.27
-18.44
-31.24
-41.09
-44.62
-40.00
-27.72
-10.55
7.46
22.30
31.22
33.27
29.10
20.31
8.72
-3.99
-16.42
-27.38
-35.88
-41.33
-43.73
-43.72
-42.40
-40.89
-39.87
-39.33
-38.80
-37.61
-35.30
-31.85
-27.75
-23.82
-20.95
-19.73
-20.17
-21.69
-23.29
-24.10
-23.74
-22.40
-20.54
-18.45
-15.95
-12.63
-8.29
-3.44
0.82
3.25
3.29
1.42
-1.07
-2.76
-2.90
-1.66
0.18
1.85
3.03
3.93
4.90
6.02
6.99
7.31
6.65
5.14
3.34
1.99
1.63
2.39
3.88
5.45
6.32
5.92
4.00
0.78
-3.08
-6.55
-8.48
-7.96
-4.68
0.83
7.35
13.27
17.23
18.53
17.38
14.71
11.65
9.13
7.47
6.50
5.77
4.88
3.70
2.32
0.91
-0.40
-1.57
-2.57
-3.33
-3.69
-3.47
-2.55
-0.92
1.27
3.79
6.40
8.82
10.68
11.56
11.06
9.06
5.86
2.25
-0.76
-2.34
-2.16
-0.58
1.60
3.51
4.65
4.96
4.72
4.19
3.34
1.84
-0.70
-4.37
-8.84
-13.39
-17.26
-19.96
-21.46
-22.08
-22.30
-22.47
-22.64
-22.68
-22.38
-21.59
-20.27
-18.55
-16.62
-14.79
-13.43
-12.88
-13.37
-14.84
-16.89
-18.84
-19.92
-19.44
-17.06
-12.79
-7.05
-0.48
6.20
12.30
17.26
20.65
22.16
21.67
19.29
15.45
10.90
6.67
3.74
2.85
4.15
7.19
10.99
14.42
16.62
17.27
16.74
15.88
15.70
16.92
19.63
23.16
26.24
27.35
25.13
18.90
9.07
-2.66
-13.61
-20.86
-22.37
-17.79
-8.80
1.58
10.17
14.89
15.52
13.40
10.57
8.62
8.13
8.75
9.75
10.67
11.44
12.12
12.48
11.83
9.35
4.53
-2.32
-10.21
-17.91
-24.56
-29.93
-34.18
-37.37
-39.13
-38.78
-35.94
-31.06
-25.51
-21.14
-19.35
-20.45
-23.49
-26.75
-28.56
-27.97
-25.00
-20.44
-15.45
-11.04
-7.91
-6.30
-6.17
-7.39
-9.73
-12.89
-16.37
-19.49
-21.66
-22.74
-23.32
-24.54
-27.61
-33.01
-40.12
-47.27
-52.43
-54.00
-51.36
-44.94
-35.70
-24.61
-12.21
1.38
16.14
31.76
47.31
61.29
72.08
78.48
80.24
78.17
73.71
68.26
62.61
56.76
50.37
43.32
36.20
30.15
26.38
25.54
27.35
30.86
34.92
38.77
42.22
45.50
48.82
52.04
54.64
55.90
55.30
52.82
48.89
44.24
39.62
35.54
32.17
29.41
27.01
24.66
22.05
18.92
15.06
10.48
5.43
0.27
-4.62
-9.05
-12.98
-16.41
-19.27
-21.45
-23.06
-24.57
-26.86
-30.88
-37.05
-44.82
-52.66
-58.54
-60.80
-58.84
-53.35
-45.85
-38.05
-31.14
-25.58
-21.21
-17.60
-14.39
-11.44
-8.78
-6.52
-4.80
-3.82
-3.83
-5.17
-8.06
-12.41
-17.58
-22.27
-24.81
-23.75
-18.54
-10.07
-0.49
7.46
11.64
11.44
7.99
3.57
0.47
-0.06
1.87
5.23
8.85
12.16
15.32
18.83
22.96
27.44
31.52
34.45
35.86
36.00
35.44
34.77
34.25
33.73
32.93
31.70
30.32
29.45
29.76
31.49
34.12
36.33
36.44
33.03
25.49
14.33
1.14
-12.03
-23.30
-31.65
-37.19
-41.06
-44.81
-49.59
-55.54
-61.65
-66.14
-67.28
-64.12
-56.82
-46.34
-33.94
-20.60
-6.84
7.07
20.78
33.68
44.88
53.42
58.42
59.23
55.41
46.83
33.96
18.05
1.00
-15.05
-28.52
-38.99
-47.30
-54.99
-63.40
-72.87
-82.53
-90.73
-95.68
-96.11
-91.50
-81.96
-68.09
-50.99
-32.35
-14.37
0.57
10.56
14.74
13.50
8.19
0.61
-7.60
-15.06
-20.78
-23.96
-24.10
-21.19
-15.80
-8.96
-1.80
4.89
10.88
16.33
21.52
26.44
30.74
33.91
35.71
36.34
36.44
36.71
37.37
37.89
37.17
34.21
28.88
22.17
15.91
11.76
10.33
10.71
10.92
8.95
3.75
-4.24
-13.47
-22.08
-28.78
-33.20
-35.74
-37.01
-37.34
-36.62
-34.45
-30.57
-25.24
-19.32
-14.10
-10.89
-10.49
-12.93
-17.48
-23.01
-28.43
-33.03
-36.61
-39.14
-40.52
-40.54
-38.99
-35.94
-31.87
-27.68
-24.41
-22.98
-24.00
-27.65
-33.75
-41.78
-50.97
-60.38
-69.09
-76.19
-80.82
-81.99
-78.50
-69.20
-53.60
-32.56
-8.56
14.75
33.86
46.64
53.08
54.85
54.13
52.25
49.15
43.87
35.60
24.47
11.67
-1.22
-12.85
-22.41
-29.40
-33.25
-33.44
-30.03
-24.30
-18.78
-16.42
-19.19
-27.00
-37.54
-47.29
-53.14
-53.56
-48.93
-40.91
-31.43
-22.01
-13.71
-7.33
-3.71
-3.51
-6.85
-12.84
-19.59
-24.80
-26.49
-23.71
-16.71
-6.66
5.03
17.29
29.71
42.48
56.12
71.21
88.05
106.41
125.42
143.57
159.02
170.21
176.46
178.55
178.85
180.93
188.43
203.58
225.87
251.50
274.17
286.85
283.95
262.95
224.93
174.12
116.64
59.16
7.64
-33.50
-61.95
-77.74
-82.99
-81.24
-76.30
-71.32
-68.13
-67.19
-68.06
-69.91
-71.90
-73.25
-73.35
-71.85
-68.79
-64.65
-60.21
-56.20
-53.13
-51.01
-49.44
-47.78
-45.44
-42.13
-37.96
-33.45
-29.28
-26.06
-24.06
-23.14
-22.82
-22.49
-21.64
-20.08
-17.95
-15.60
-13.47
-11.87
-10.94
-10.63
-10.77
-11.07
-11.26
-11.11
-10.50
-9.52
-8.34
-7.18
-6.17
-5.33
-4.56
-3.79
-3.03
-2.41
-2.06
-1.97
-2.00
-1.97
-1.81
-1.64
-1.75
-2.35
-3.38
-4.48
-5.14
-4.95
-3.89
-2.28
-0.65
0.56
1.20
1.44
1.61
1.97
2.58
3.31
3.94
4.30
4.39
4.36
4.37
4.57
5.00
5.60
6.31
7.09
7.94
8.92
10.03
11.13
11.93
12.11
11.40
9.85
7.81
5.84
4.46
3.90
4.01
4.36
4.56
4.50
4.39
4.65
5.58
7.18
9.10
10.80
11.86
12.16
11.95
11.67
11.76
12.43
13.53
14.69
15.43
15.50
14.99
14.33
14.16
14.92
16.70
19.12
21.49
23.07
23.43
22.56
20.78
18.50
16.04
13.46
10.71
7.73
4.56
1.35
-1.70
-4.48
-6.89
-8.78
-9.81
-9.49
-7.34
-3.17
2.67
9.29
15.44
20.01
22.34
22.49
21.07
18.91
16.57
14.06
10.90
6.48
0.59
-6.24
-12.89
-18.13
-21.44
-23.35
-25.39
-29.23
-35.85
-44.99
-55.36
-65.44
-74.37
-82.24
-89.74
-97.26
-104.32
-109.55
-111.36
-108.93
-102.68
-94.01
-84.53
-75.14
-65.74
-55.56
-43.97
-31.12
-18.11
-6.48
2.41
8.09
11.02
12.33
13.22
14.50
16.45
18.87
21.43
23.86
26.02
27.89
29.39
30.44
30.89
30.67
29.79
28.36
26.60
24.91
23.77
23.66
24.68
26.38
27.67
27.21
24.00
18.01
10.33
2.80
-2.71
-5.12
-4.56
-2.07
0.99
3.58
5.35
6.52
7.49
8.50
9.43
10.06
10.19
9.94
9.59
9.46
9.54
9.46
8.54
6.11
1.95
-3.55
-9.38
-14.28
-17.25
-17.92
-16.75
-14.75
-13.00
-12.22
-12.46
-13.21
-13.78
-13.66
-12.81
-11.59
-10.49
-9.85
-9.64
-9.53
-9.16
-8.34
-7.23
-6.26
-5.98
-6.78
-8.73
-11.54
-14.62
-17.27
-18.91
-19.33
-18.76
-17.75
-16.88
-16.51
-16.57
-16.64
-16.29
-15.31
-13.88
-12.46
-11.47
-11.04
-10.92
-10.63
-9.69
-7.94
-5.60
-3.26
-1.55
-0.83
-0.93
-1.21
-0.78
0.98
4.03
7.59
10.44
11.44
9.95
6.00
0.15
-6.64
-13.10
-17.72
-18.85
-15.22
-6.51
6.23
20.76
34.35
44.86
51.55
55.09
56.96
58.41
59.77
60.31
58.93
54.87
48.37
40.52
32.76
26.17
21.06
17.09
13.75
10.94
9.14
9.13
11.32
15.21
19.25
21.30
19.50
13.09
2.84
-9.21
-20.52
-28.94
-33.45
-34.28
-32.67
-30.16
-28.10
-27.27
-27.85
-29.62
-32.09
-34.61
-36.43
-36.81
-35.23
-31.66
-26.61
-20.95
-15.67
-11.43
-8.47
-6.64
-5.62
-5.16
-5.17
-5.58
-6.25
-6.88
-7.13
-6.84
-6.14
-5.42
-5.04
-5.11
-5.33
-5.19
-4.32
-2.84
-1.37
-0.73
-1.32
-2.76
-3.89
-3.45
-0.74
3.85
9.04
13.34
15.96
17.22
18.43
20.94
25.32
30.89
36.00
38.98
38.94
36.25
32.24
28.50
26.11
25.19
25.10
24.96
24.25
23.08
22.03
21.65
22.09
22.69
22.09
18.63
10.95
-1.38
-17.50
-35.22
-51.37
-62.28
-65.09
-58.79
-44.54
-25.29
-4.67
14.13
28.95
39.09
45.53
49.69
52.90
56.14
60.03
64.58
68.80
70.73
68.35
61.95
53.87
47.67
46.51
51.66
61.99
74.41
85.33
92.43
96.67
100.28
104.80
109.84
113.62
114.37
111.43
105.55
90.01
62.48
26.28
-10.54
-40.47
-60.35
-71.38
-76.90
-80.38
-83.28
-85.43
-85.85
-83.97
-80.28
-75.79
-71.33
-67.12
-62.79
-57.51
-49.74
-38.68
-25.04
-11.00
0.80
8.47
11.49
10.69
7.72
4.94
4.17
5.96
9.60
13.74
17.08
18.74
18.21
15.36
10.55
4.42
-2.37
-9.25
-15.72
-21.25
-25.45
-28.19
-29.56
-29.86
-29.43
-28.64
-27.82
-27.15
-26.67
-26.27
-25.76
-24.93
-23.70
-22.12
-20.40
-18.83
-17.64
-16.88
-16.34
-15.74
-14.77
-13.28
-11.27
-8.76
-5.72
-2.06
2.27
7.07
11.83
15.72
17.83
17.47
14.47
9.18
2.46
-4.63
-11.12
-16.32
-19.90
-21.90
-22.55
-22.20
-21.24
-20.05
-18.91
-18.00
-17.28
-16.60
-15.73
-14.51
-12.88
-10.93
-8.87
-6.90
-5.19
-3.81
-2.76
-1.97
-1.37
-0.87
-0.37
0.39
1.82
4.39
8.43
13.73
19.40
23.96
25.82
24.01
18.68
11.19
3.56
-2.29
-5.41
-5.99
-5.07
-3.79
-2.68
-1.39
1.04
5.51
12.22
20.39
28.53
35.11
39.26
41.21
42.08
43.39
46.27
50.91
56.57
61.86
65.44
66.56
65.30
62.47
59.21
56.61
55.42
55.79
57.08
57.68
54.90
45.31
25.67
-5.54
-46.81
-93.18
-137.45
-172.49
-193.86
-201.14
-197.52
-187.73
-175.73
-163.29
-150.16
-135.41
-118.93
-101.89
-86.14
-72.98
-62.28
-52.53
-41.93
-29.53
-15.85
-2.61
8.19
15.30
18.88
20.37
21.68
24.34
28.71
33.88
37.96
38.91
35.28
26.71
14.03
-1.02
-16.30
-29.84
-40.13
-46.29
-48.01
-45.55
-39.67
-31.69
-23.34
-16.37
-12.08
-10.74
-11.34
-11.93
-10.42
-5.59
2.23
11.09
18.21
21.14
18.79
11.86
2.45
-6.88
-14.05
-18.07
-18.95
-17.23
-13.35
-7.34
0.94
11.44
23.44
35.54
46.10
53.83
58.40
60.55
61.61
62.71
63.99
64.38
62.09
55.60
44.64
30.73
16.68
5.64
-0.30
-0.79
2.63
7.30
10.53
10.53
6.83
0.06
-8.56
-17.66
-25.79
-31.32
-32.57
-28.45
-19.49
-8.43
0.05
0.95
-8.74
-28.19
-52.61
-74.85
-88.29
-89.38
-78.69
-60.10
-38.83
-19.35
-4.30
5.54
10.49
11.18
8.16
1.99
-6.52
-16.15
-25.29
-32.31
-36.00
-35.99
-33.01
-28.69
-25.12
-24.12
-26.65
-32.35
-39.81
-46.91
-51.55
-52.15
-48.01
-39.23
-26.56
-11.04
6.16
23.86
40.89
56.11
68.42
76.90
80.96
80.46
75.87
68.27
59.06
49.73
41.47
34.99
30.48
27.77
26.52
26.41
27.26
28.92
31.20
33.71
35.87
37.08
36.95
35.50
33.20
30.79
28.88
27.76
27.17
26.54
25.27
23.11
20.26
17.19
14.42
12.15
10.31
8.72
7.25
5.86
4.57
3.40
2.20
0.70
-1.40
-4.16
-7.24
-10.11
-12.28
-13.51
-13.82
-13.53
-13.08
-12.97
-13.64
-15.06
-17.13
-19.82
-23.26
-27.47
-32.07
-36.27
-38.99
-39.23
-35.96
-29.15
-19.83
-9.50
0.86
10.97
20.67
29.50
36.66
42.49
47.02
49.38
48.19
42.72
33.40
21.50
8.24
-6.09
-20.59
-36.06
-54.37
-75.92
-97.14
-110.97
-110.15
-90.44
-51.90
4.52
75.03
152.71
228.49
293.06
338.36
358.72
352.44
307.07
225.40
127.09
37.45
-29.01
-72.27
-99.35
-116.80
-127.85
-133.38
-131.35
-122.07
-109.42
-98.92
-94.10
-95.07
-99.17
-103.06
-104.38
-100.41
-91.15
-79.68
-70.38
-66.23
-67.82
-73.90
-82.15
-89.55
-91.29
-83.32
-64.21
-35.85
-2.66
29.87
56.87
75.64
86.35
92.05
96.30
101.15
106.38
109.97
109.30
102.26
88.08
67.95
44.92
22.70
4.38
-8.54
-16.38
-20.45
-22.15
-22.31
-21.24
-19.09
-16.52
-14.68
-14.65
-16.77
-20.29
-23.74
-25.73
-25.53
-23.17
-19.40
-15.21
-11.50
-8.83
-7.34
-6.75
-6.48
-5.92
-4.81
-3.32
-2.03
-1.66
-2.77
-5.35
-8.70
-11.51
-12.28
-10.00
-4.50
3.38
12.03
19.42
23.93
24.89
22.70
18.44
13.18
7.46
1.48
-4.80
-11.44
-17.89
-23.18
-26.27
-26.79
-25.45
-23.69
-22.69
-23.00
-24.62
-26.71
-28.36
-28.89
-28.01
-26.74
-26.79
-29.13
-33.70
-39.59
-44.65
-46.36
-42.08
-30.86
-13.57
4.54
18.79
28.43
32.68
32.12
28.22
23.84
20.92
19.86
19.60
19.31
18.68
17.57
16.60
16.77
20.69
29.71
43.62
60.74
79.65
99.54
119.78
140.11
151.03
146.87
129.26
106.05
83.44
63.59
46.17
30.09
14.68
-0.09
-11.55
-20.22
-27.06
-33.75
-41.68
-51.79
-64.82
-81.39
-102.14
-119.29
-128.71
-128.77
-120.48
-105.88
-87.04
-66.04
-45.07
-28.07
-13.98
-3.62
2.53
4.62
3.85
1.96
0.35
-0.55
-0.06
2.05
4.45
6.34
7.42
7.86
7.84
7.58
7.45
8.02
10.10
13.42
17.54
21.76
25.27
27.44
28.24
28.38
28.80
30.17
32.12
34.07
35.58
36.64
37.49
38.85
41.58
45.97
51.44
56.77
61.10
64.37
67.29
70.06
73.53
78.84
86.39
95.29
103.82
110.17
112.79
110.54
100.87
83.60
61.19
36.89
12.89
-9.84
-31.22
-51.54
-71.19
-93.20
-117.06
-138.69
-153.90
-161.75
-164.98
-169.08
-180.57
-204.67
-246.60
-302.47
-359.35
-401.86
-419.31
-408.38
-372.52
-319.43
-231.96
-119.37
-10.67
69.07
113.88
130.44
128.75
118.18
106.45
98.44
92.44
88.43
88.77
95.29
106.67
119.54
130.44
137.11
136.86
126.66
108.28
87.51
70.21
58.98
53.35
51.19
50.16
48.48
43.69
35.77
26.92
19.49
14.35
11.24
9.63
9.21
9.79
10.46
10.88
11.38
12.27
13.53
15.14
17.41
20.83
25.61
31.03
35.90
38.98
39.32
36.63
31.49
25.17
19.14
14.45
11.58
10.31
10.08
10.27
10.48
10.44
10.05
9.26
8.08
6.63
5.07
3.52
2.05
0.69
-0.57
-1.72
-2.76
-3.80
-5.12
-7.08
-10.00
-14.04
-18.92
-23.98
-28.14
-30.13
-28.68
-22.97
-13.02
-0.04
13.41
23.82
27.70
22.79
9.11
-10.81
-32.64
-51.71
-64.43
-69.24
-66.54
-58.07
-46.01
-32.33
-18.65
-6.24
3.86
10.84
14.37
14.72
12.74
9.67
6.79
5.03
4.80
5.90
7.59
8.81
8.54
6.14
1.53
-4.70
-11.54
-17.87
-22.76
-25.73
-26.69
-25.86
-23.56
-19.99
-15.12
-8.74
-0.59
9.36
20.59
31.78
40.88
45.59
44.15
36.14
22.98
7.65
-6.17
-15.32
-18.16
-15.03
-7.93
0.32
7.10
10.74
10.74
7.63
2.53
-3.37
-9.15
-14.28
-18.59
-22.07
-24.71
-26.37
-26.94
-26.47
-25.39
-24.52
-24.92
-27.46
-32.47
-39.51
-47.47
-54.94
-60.74
-64.34
-66.00
-66.66
-67.49
-69.66
-73.94
-80.65
-89.47
-99.26
-107.73
-111.35
-105.82
-87.25
-53.86
-7.28
47.12
101.50
147.75
179.91
195.67
196.33
185.76
168.65
149.31
130.91
115.44
103.76
95.69
90.17
85.54
80.19
73.25
64.92
56.32
48.90
43.76
41.15
40.50
40.82
41.15
40.84
39.48
36.75
32.38
26.28
18.81
10.76
3.09
-3.52
-8.97
-13.58
-17.71
-21.26
-23.58
-23.85
-21.64
-17.28
-11.77
-6.32
-1.81
1.49
3.80
5.51
6.91
8.17
9.46
11.08
13.40
16.70
20.87
25.21
28.47
29.15
26.11
19.12
9.16
-1.75
-11.20
-17.30
-19.32
-17.81
-14.14
-9.74
-5.59
-2.16
0.33
1.58
1.13
-1.22
-5.06
-9.26
-12.38
-13.31
-11.91
-9.09
-6.35
-5.02
-5.64
-7.84
-10.61
-12.94
-14.26
-14.57
-14.22
-13.55
-12.63
-11.20
-8.99
-5.91
-2.27
1.33
4.25
6.16
7.12
7.50
7.68
7.88
8.03
7.94
7.50
6.80
6.18
6.08
6.90
8.82
11.78
15.43
19.19
22.39
24.33
24.46
22.38
17.92
11.21
2.69
-6.87
-16.43
-24.94
-31.51
-35.66
-37.36
-36.91
-34.76
-31.42
-27.35
-23.03
-18.89
-15.27
-12.27
-9.64
-6.94
-3.71
0.28
4.93
9.83
14.41
18.02
20.18
20.58
19.23
16.47
12.88
9.12
5.64
2.54
-0.37
-3.42
-6.80
-10.46
-14.05
-17.16
-19.45
-20.72
-20.83
-19.70
-17.24
-13.59
-9.20
-4.96
-2.03
-1.60
-4.43
-10.67
-19.65
-30.09
-40.39
-49.03
-54.96
-57.83
-57.95
-56.15
-53.42
-50.68
-48.59
-47.56
-47.72
-48.98
-51.02
-53.25
-54.93
-55.40
-54.27
-51.62
-47.88
-43.61
-39.20
-34.78
-30.28
-25.66
-21.09
-16.95
-13.69
-11.59
-10.67
-10.71
-11.35
-12.23
-12.96
-13.21
-12.66
-11.15
-8.69
-5.51
-1.95
1.69
5.22
8.63
12.00
15.42
18.88
22.32
25.59
28.50
30.82
32.26
32.61
31.76
29.90
27.41
24.87
22.87
21.85
22.02
23.31
25.40
27.74
29.72
30.74
30.40
28.58
25.51
21.59
17.30
13.05
9.13
5.84
3.47
2.37
2.76
4.64
7.63
11.08
14.21
16.47
17.61
17.82
17.59
17.47
17.86
18.74
19.52
19.08
16.08
9.43
-1.14
-14.75
-29.44
-42.69
-52.22
-56.69
-56.05
-51.33
-44.08
-35.70
-27.17
-18.94
-11.23
-4.31
1.43
5.63
8.22
9.52
10.18
10.82
11.75
12.76
13.25
12.48
10.04
6.00
0.93
-4.31
-8.88
-12.22
-14.19
-15.00
-15.08
-14.90
-14.73
-14.65
-14.46
-13.92
-12.80
-11.06
-8.86
-6.49
-4.35
-2.91
-2.60
-3.74
-6.43
-10.37
-14.91
-19.19
-22.38
-24.06
-24.25
-23.31
-21.69
-19.76
-17.62
-15.31
-12.90
-10.64
-8.97
-8.44
-9.56
-12.65
-17.76
-24.53
-32.20
-39.71
-45.92
-49.92
-51.20
-49.70
-45.58
-38.92
-29.57
-17.26
-2.00
15.47
33.50
49.82
62.20
69.29
71.10
69.03
65.23
61.74
59.72
59.20
59.45
59.60
59.17
58.25
57.21
56.29
55.30
53.71
51.03
47.16
42.53
37.85
33.66
29.99
26.28
21.67
15.49
7.58
-1.53
-10.81
-19.13
-25.61
-29.96
-32.49
-34.03
-35.50
-37.55
-40.25
-43.08
-45.14
-45.65
-44.26
-41.18
-37.00
-32.34
-27.62
-23.04
-18.84
-15.55
-13.99
-14.94
-18.57
-24.06
-29.62
-33.01
-32.42
-27.14
-17.74
-5.77
6.97
19.04
29.73
38.83
46.37
52.23
56.10
57.69
56.97
54.41
50.83
47.14
44.03
41.74
40.14
38.91
37.77
36.64
35.64
34.92
34.55
34.51
34.63
34.73
34.63
34.17
33.27
31.93
30.37
29.10
28.80
30.21
33.82
39.67
47.23
55.57
63.71
70.97
77.09
81.99
85.44
86.80
85.15
79.79
70.77
59.14
46.69
35.31
26.23
19.72
15.14
11.46
7.76
3.55
-1.27
-6.68
-12.60
-18.91
-25.27
-31.12
-35.78
-38.72
-39.84
-39.55
-38.65
-37.93
-37.85
-38.38
-39.10
-39.56
-39.50
-39.02
-38.49
-38.23
-38.36
-38.74
-39.07
-39.12
-38.90
-38.59
-38.41
-38.40
-38.31
-37.60
-35.72
-32.41
-27.91
-23.07
-19.08
-17.04
-17.50
-20.21
-24.09
-27.76
-30.08
-30.70
-30.24
-30.03
-31.40
-35.03
-40.42
-45.96
-49.58
-49.58
-45.41
-37.82
-28.49
-19.21
-11.14
-4.49
1.27
6.96
13.36
21.28
31.62
45.22
62.27
81.54
100.20
114.60
121.90
121.74
116.64
110.79
107.75
108.22
109.45
106.85
97.04
80.33
61.26
46.44
41.06
46.02
57.30
68.12
72.36
67.46
55.09
39.52
24.71
12.20
0.72
-12.16
-27.88
-45.38
-61.42
-72.30
-75.85
-72.56
-65.23
-57.50
-52.09
-49.72
-49.26
-48.80
-47.00
-43.83
-40.55
-38.82
-39.77
-43.47
-49.04
-55.24
-61.08
-66.14
-70.43
-74.13
-77.21
-79.39
-80.22
-79.30
-76.47
-71.84
-65.86
-59.20
-52.74
-47.30
-43.52
-41.62
-41.39
-42.33
-43.86
-45.59
-47.44
-49.60
-52.37
-55.87
-59.98
-64.36
-68.67
-72.76
-76.86
-81.38
-86.71
-92.96
-99.77
-106.35
-111.47
-113.60
-111.16
-102.88
-88.25
-67.90
-43.66
-18.31
5.22
24.60
38.90
48.70
55.69
61.80
68.38
75.77
83.45
90.44
95.88
99.13
99.75
97.22
90.98
80.79
67.14
51.57
36.30
23.50
14.35
8.63
5.02
1.87
-1.91
-6.43
-10.93
-14.30
-15.61
-14.49
-11.17
-6.47
-1.76
1.20
0.54
-5.02
-15.39
-28.73
-41.79
-51.20
-54.94
-53.59
-50.22
-49.18
-53.97
-65.42
-80.89
-94.93
-101.15
-94.43
-72.65
-37.19
7.60
55.85
101.74
140.69
170.05
189.11
198.63
200.17
195.47
185.87
172.06
154.01
131.17
102.92
69.11
30.69
-9.97
-48.92
-80.96
-100.67
-103.78
-88.85
-58.26
-18.08
23.37
57.80
78.93
83.70
72.38
48.01
15.45
-19.56
-51.35
-75.24
-88.37
-90.39
-83.45
-71.53
-58.94
-48.96
-42.93
-40.45
-39.94
-39.47
-37.72
-34.59
-31.39
-30.06
-32.31
-38.56
-47.68
-56.51
-60.32
-54.67
-37.35
-9.57
24.24
57.24
81.53
88.79
73.78
37.07
-14.25
-68.30
-111.92
-134.80
-133.06
-110.48
-78.16
-48.05
-27.39
-17.08
-13.72
-13.05
-12.27
-10.87
-9.83
-12.42
-20.34
-31.94
-44.34
-55.97
-68.08
-83.10
-103.17
-114.52
-107.42
-83.03
-49.79
-15.07
17.85
46.03
66.44
75.78
72.00
53.92
24.56
-6.90
-30.03
-36.83
-25.42
1.85
39.04
78.85
113.85
140.56
162.38
178.29
187.78
189.29
183.30
171.10
153.63
130.17
91.13
37.70
-19.31
-63.50
-93.73
-111.40
-116.65
-110.46
-95.72
-75.83
-52.16
-26.69
-1.92
18.53
33.17
41.66
44.40
42.67
38.59
35.52
35.02
36.54
37.47
36.16
31.70
23.90
13.67
2.80
-6.17
-12.08
-15.34
-17.77
-20.39
-23.65
-27.52
-31.58
-35.10
-36.72
-35.12
-29.27
-19.24
-6.42
5.79
12.62
10.08
-2.87
-23.31
-45.56
-63.67
-73.88
-75.45
-70.13
-60.30
-47.50
-32.00
-13.80
6.22
25.84
42.17
53.02
57.82
57.69
54.63
50.43
46.08
41.78
37.42
33.11
29.38
26.91
26.17
27.11
29.16
31.41
32.91
32.92
31.09
27.50
22.69
17.57
13.12
10.00
8.17
6.70
4.10
-0.78
-7.70
-14.45
-17.41
-13.15
-0.41
18.71
39.06
54.38
59.94
54.51
40.66
23.39
7.75
-3.07
-8.50
-9.89
-9.15
-7.58
-5.62
-3.35
-1.23
-0.45
-2.47
-8.13
-16.87
-26.55
-34.23
-37.57
-35.97
-30.98
-25.49
-22.42
-23.37
-27.99
-34.31
-39.69
-42.02
-40.34
-35.12
-27.90
-20.72
-15.41
-13.19
-14.11
-16.84
-18.65
-16.21
-6.90
9.53
30.17
49.55
61.76
63.09
53.92
38.57
23.33
13.61
11.84
17.03
26.21
36.29
45.45
53.20
59.52
63.92
65.26
62.36
54.93
44.09
32.23
22.23
16.28
15.09
17.67
21.69
24.55
24.38
20.86
15.28
9.95
7.05
7.68
11.36
16.36
20.58
22.52
21.82
19.14
15.67
12.61
11.06
12.10
16.74
25.41
37.10
48.86
56.18
54.67
42.20
20.41
-5.38
-28.15
-42.03
-44.75
-38.18
-27.04
-16.42
-9.53
-6.95
-7.24
-8.45
-9.41
-10.08
-11.01
-12.60
-14.47
-15.64
-15.08
-12.25
-7.45
-1.57
4.27
9.15
12.48
14.07
13.96
12.35
9.53
5.86
1.90
-1.31
-2.21
0.92
8.91
20.52
32.01
37.88
32.99
14.97
-14.25
-48.86
-81.27
-105.00
-116.76
-116.92
-108.38
-94.84
-79.53
-64.77
-52.25
-43.26
-38.57
-38.05
-40.34
-43.19
-44.15
-41.57
-35.27
-26.51
-17.36
-9.81
-4.96
-2.74
-2.17
-1.92
-0.86
1.53
5.14
9.40
13.54
17.08
20.22
24.01
29.96
39.07
50.63
61.54
66.90
61.83
43.95
15.04
-18.99
-50.26
-71.92
-80.74
-77.67
-66.42
-51.02
-33.91
-15.60
4.13
24.68
43.84
58.46
66.04
66.23
61.25
54.82
50.38
49.64
52.15
56.11
59.70
62.05
63.46
64.76
66.45
68.19
68.89
67.30
62.60
54.97
45.61
36.45
29.46
25.82
25.12
25.13
22.38
13.53
-3.00
-25.84
-50.87
-72.60
-86.35
-90.03
-84.72
-73.77
-61.14
-49.90
-41.60
-36.53
-34.43
-34.86
-37.13
-39.95
-41.34
-39.09
-31.71
-19.39
-4.24
10.31
20.88
25.52
24.43
19.79
14.72
12.01
13.05
17.56
23.96
30.23
34.65
36.46
36.10
35.26
36.43
42.04
53.21
68.61
84.16
94.24
93.95
81.55
59.58
34.03
11.72
-2.59
-7.96
-7.02
-4.03
-2.51
-3.82
-7.25
-11.12
-14.19
-16.21
-17.76
-19.60
-22.03
-24.77
-27.18
-28.80
-29.73
-30.75
-33.03
-37.59
-44.73
-53.75
-63.15
-71.24
-76.91
-80.06
-81.44
-81.69
-80.40
-75.98
-66.66
-52.29
-35.54
-21.54
-15.84
-21.55
-37.61
-58.91
-78.54
-90.73
-92.81
-85.36
-70.87
-51.96
-30.46
-7.64
15.07
35.60
51.71
61.95
66.55
67.36
67.19
68.58
72.83
79.75
88.01
96.03
102.66
107.59
111.01
113.20
114.01
112.77
108.58
100.83
89.71
76.37
62.81
51.48
44.75
44.06
49.13
57.51
64.81
65.98
57.28
38.02
11.24
-17.31
-41.48
-57.25
-64.17
-65.11
-64.48
-66.04
-71.40
-79.77
-88.91
-96.47
-101.06
-102.50
-101.45
-98.76
-94.98
-90.22
-84.46
-77.89
-71.10
-64.96
-60.31
-57.58
-56.58
-56.66
-57.05
-57.20
-57.07
-56.91
-57.04
-57.42
-57.53
-56.45
-53.35
-48.00
-41.12
-34.37
-29.71
-28.62
-31.31
-36.54
-41.96
-44.95
-43.44
-36.27
-23.25
-4.92
17.69
43.04
69.07
93.23
112.88
125.83
130.97
128.53
119.98
107.59
93.86
80.93
70.26
62.47
57.45
54.56
52.96
51.85
50.58
48.63
45.47
40.61
33.63
24.60
14.21
3.87
-4.69
-9.87
-10.82
-7.73
-1.94
4.19
8.03
7.28
0.60
-11.80
-28.07
-45.07
-59.25
-67.64
-69.25
-64.64
-55.68
-44.52
-32.57
-19.95
-5.78
10.92
30.36
50.62
68.95
82.28
88.56
87.75
82.02
75.11
70.99
72.63
79.97
90.84
101.00
105.21
98.84
79.51
48.09
7.48
-32.19
-65.26
-88.09
-101.11
-108.62
-117.11
-132.54
-157.92
-192.04
-229.67
-264.15
-288.38
-297.40
-289.77
-267.79
-236.58
-202.22
-169.83
-141.92
-118.88
-98.71
-79.01
-58.42
-37.22
-17.01
0.32
13.49
22.45
27.70
30.56
32.78
36.40
43.44
55.06
70.65
87.70
102.93
114.08
121.75
129.31
140.99
159.21
182.70
206.81
225.81
235.75
236.12
229.57
220.09
210.84
203.20
196.93
191.23
185.46
179.19
171.95
162.93
151.14
135.68
115.96
91.66
62.61
28.88
-8.83
-48.63
-87.37
-121.21
-146.70
-162.13
-168.17
-167.67
-164.03
-159.21
-152.50
-141.33
-123.47
-99.35
-72.54
-47.95
-28.90
-15.40
-4.89
4.97
13.49
16.59
9.29
-10.42
-39.13
-68.80
-90.52
-98.70
-93.23
-78.57
-60.49
-43.25
-28.60
-16.64
-7.27
-1.14
0.70
-2.24
-9.07
-17.59
-25.08
-29.39
-29.61
-26.19
-20.40
-13.64
-6.81
-0.11
6.78
14.20
22.14
29.99
36.50
40.23
39.92
35.13
26.56
16.19
7.00
2.21
4.07
12.72
25.61
38.03
44.74
42.17
30.01
11.51
-8.01
-23.41
-31.81
-33.25
-29.85
-24.05
-17.19
-9.16
0.80
12.88
25.89
37.45
44.84
46.15
41.01
30.68
17.41
3.53
-9.35
-20.69
-30.83
-40.45
-49.94
-59.14
-67.39
-74.09
-78.90
-81.54
-81.20
-76.38
-65.67
-49.11
-29.30
-11.13
0.05
0.97
-7.73
-21.64
-34.68
-41.93
-41.57
-34.89
-24.85
-14.14
-4.13
5.00
13.32
20.43
25.47
27.79
27.47
25.45
23.06
21.39
20.78
20.81
20.69
19.86
18.42
17.08
16.78
18.05
20.65
23.44
24.94
23.97
20.06
13.85
7.13
2.68
3.71
12.60
29.51
51.33
72.03
84.52
83.56
68.22
42.55
14.05
-9.57
-23.37
-26.67
-22.36
-14.84
-7.86
-3.44
-2.02
-3.26
-6.78
-12.17
-18.84
-25.63
-30.94
-33.14
-31.39
-26.00
-18.55
-11.31
-6.40
-5.04
-7.07
-11.16
-15.44
-18.32
-19.04
-17.92
-16.03
-14.63
-14.66
-16.15
-17.92
-17.84
-13.70
-4.56
8.33
21.48
30.38
31.45
23.77
9.57
-6.76
-20.59
-28.85
-30.83
-27.74
-21.50
-13.72
-5.33
3.08
10.84
17.03
20.78
21.82
20.73
18.97
18.43
20.81
26.87
35.99
46.24
54.91
59.50
58.67
52.75
43.65
34.02
26.12
20.88
17.72
14.95
10.77
4.13
-4.91
-15.22
-24.98
-32.03
-34.24
-30.08
-19.38
-4.13
11.57
22.55
24.56
16.25
-0.01
-18.98
-34.78
-43.34
-43.72
-37.72
-28.39
-18.30
-8.73
0.10
8.26
15.50
21.29
25.24
27.64
29.39
31.62
35.00
39.31
43.52
46.35
46.96
45.38
42.57
39.86
38.31
38.21
38.91
39.14
37.45
32.77
24.66
13.54
0.70
-11.76
-21.46
-26.64
-27.14
-24.89
-23.38
-26.16
-35.17
-49.59
-66.10
-80.33
-88.71
-89.75
-84.20
-74.22
-62.24
-50.18
-39.15
-29.62
-21.60
-14.61
-7.55
1.06
12.63
27.81
46.05
65.62
84.09
99.01
108.55
112.12
110.51
105.42
98.80
91.99
85.50
78.98
71.53
62.21
50.84
38.22
25.82
15.10
6.90
1.41
-2.13
-5.76
-12.59
-25.52
-45.30
-69.45
-92.15
-106.03
-104.47
-84.52
-48.86
-5.32
36.29
67.68
84.01
84.01
69.14
43.40
12.48
-17.44
-40.81
-53.17
-51.55
-35.58
-7.83
22.46
43.51
48.66
40.53
25.91
10.50
-2.36
-11.57
-17.86
-22.99
-28.12
-33.01
-36.62
-37.82
-36.49
-32.56
-26.52
-19.47
-12.66
-6.42
-0.00
7.57
16.50
26.26
36.23
45.96
54.48
61.31
66.46
70.15
72.29
72.29
69.72
65.06
59.75
55.75
55.08
59.24
68.89
83.56
101.76
121.26
139.48
153.42
159.78
155.50
138.46
108.15
65.86
14.45
-42.41
-100.87
-157.55
-209.68
-255.10
-292.29
-320.48
-339.68
-350.60
-354.37
-352.05
-344.34
-331.45
-313.23
-289.74
-261.83
-231.61
-202.26
-176.98
-157.47
-142.59
-128.16
-108.31
-78.13
-36.15
14.50
67.20
114.61
151.64
177.07
193.08
203.35
210.80
216.34
219.03
217.16
209.61
196.46
179.04
159.27
138.93
119.19
100.44
82.65
65.72
49.78
35.23
22.37
11.07
0.71
-9.52
-20.11
-30.73
-40.26
-47.25
-50.61
-50.16
-46.68
-41.54
-36.15
-31.45
-27.76
-24.81
-21.86
-17.98
-12.23
-4.07
6.39
18.16
29.56
38.61
43.67
43.90
39.50
31.63
22.13
13.04
6.14
2.65
2.96
6.66
12.62
19.27
24.98
28.39
28.83
26.41
21.91
16.46
11.12
6.68
3.52
1.65
0.76
0.37
0.03
-0.44
-0.77
-0.26
1.92
6.16
11.87
17.31
20.09
18.13
10.68
-1.17
-14.79
-26.99
-35.21
-38.31
-36.81
-32.43
-27.51
-24.38
-24.76
-29.27
-37.06
-45.78
-52.03
-52.52
-45.48
-31.65
-14.27
2.12
13.49
17.88
16.02
10.56
4.62
0.36
-1.60
-1.85
-1.32
-0.61
0.22
1.45
3.38
6.14
9.86
14.60
20.04
25.10
27.86
26.14
18.53
5.44
-10.79
-26.67
-39.05
-46.33
-48.74
-47.60
-44.22
-39.15
-32.33
-23.82
-14.47
-6.01
-0.31
1.59
0.11
-2.98
-5.36
-5.15
-1.72
4.18
10.79
16.22
19.22
19.63
18.34
16.78
16.24
17.31
19.70
22.46
24.48
24.96
23.63
20.76
17.00
13.28
10.71
10.47
13.37
19.35
27.06
34.03
37.45
35.23
26.89
13.71
-1.97
-17.71
-31.64
-42.69
-50.16
-53.38
-51.70
-44.90
-33.77
-20.20
-6.67
4.49
11.92
15.50
16.02
14.51
11.66
7.61
2.19
-4.57
-12.11
-19.28
-24.63
-26.93
-25.69
-21.41
-15.41
-9.35
-4.58
-1.70
-0.32
0.65
2.40
5.52
9.62
13.37
15.23
14.19
10.30
4.72
-0.92
-5.23
-7.61
-8.22
-7.57
-5.96
-3.26
0.87
6.46
12.91
18.97
23.28
25.00
24.25
22.07
19.92
19.02
19.71
21.42
22.96
23.19
21.43
17.65
12.15
5.25
-2.93
-12.22
-22.03
-31.03
-37.34
-39.26
-36.01
-28.35
-18.34
-8.66
-1.57
1.83
1.79
-0.40
-3.09
-4.82
-4.59
-1.88
3.36
10.71
19.15
27.04
32.35
33.19
28.52
18.71
5.69
-7.59
-17.98
-23.19
-22.48
-16.72
-7.99
1.17
8.61
12.98
14.02
12.29
8.87
4.92
1.38
-1.17
-2.53
-2.80
-2.29
-1.45
-0.77
-0.64
-1.30
-2.74
-4.72
-6.94
-9.14
-11.33
-13.76
-16.83
-20.72
-25.02
-28.51
-29.47
-26.36
-18.68
-7.59
4.29
13.68
17.91
15.92
8.60
-1.75
-12.37
-20.97
-26.21
-27.66
-25.49
-20.26
-12.85
-4.46
3.47
9.60
13.10
13.84
12.43
9.91
7.32
5.40
4.41
4.30
4.75
5.43
6.00
6.20
5.92
5.29
4.67
4.55
5.41
7.41
10.34
13.55
16.27
17.84
17.99
16.95
15.31
13.86
13.36
14.43
17.43
22.26
28.17
33.69
36.86
35.89
30.00
19.97
8.18
-2.14
-8.09
-8.16
-2.77
6.15
15.98
24.49
30.45
33.70
34.79
34.50
33.50
32.30
31.23
30.49
30.11
29.89
29.37
28.04
25.57
22.00
17.82
13.85
10.83
9.18
8.72
8.72
8.14
6.03
1.95
-3.67
-9.50
-13.69
-14.67
-12.04
-7.12
-2.85
-2.67
-9.12
-22.51
-40.47
-58.67
-72.35
-77.93
-74.22
-62.56
-46.05
-28.41
-12.95
-1.91
3.65
3.72
-0.84
-8.49
-17.22
-24.87
-29.56
-30.16
-26.60
-19.83
-11.47
-3.30
3.21
7.19
8.39
6.99
3.48
-1.40
-6.75
-11.55
-14.91
-16.37
-16.04
-14.65
-13.22
-12.70
-13.52
-15.46
-17.77
-19.52
-19.99
-18.84
-16.13
-12.23
-7.77
-3.57
-0.66
-0.09
-2.63
-8.31
-16.16
-24.21
-30.09
-31.85
-28.68
-21.23
-11.30
-1.01
7.98
14.91
19.89
23.47
26.17
28.14
29.25
29.35
28.50
26.97
25.07
22.90
20.30
17.03
13.07
8.85
5.21
3.00
2.79
4.45
7.23
10.03
11.74
11.65
9.61
6.04
1.83
-1.88
-4.03
-4.01
-2.00
0.94
3.04
2.41
-2.25
-11.01
-22.58
-34.55
-44.21
-49.38
-49.10
-43.85
-35.28
-25.63
-17.03
-11.01
-8.20
-8.42
-10.84
-14.30
-17.50
-19.23
-18.60
-15.24
-9.46
-2.26
4.96
10.77
14.19
15.15
14.49
13.69
14.29
17.19
22.22
28.11
33.09
35.63
35.20
32.52
29.38
27.87
29.59
34.83
42.30
49.41
53.08
50.83
41.74
26.97
9.40
-7.35
-20.19
-27.56
-29.67
-28.08
-24.80
-21.56
-19.38
-18.64
-19.24
-20.81
-22.83
-24.63
-25.57
-25.27
-23.74
-21.49
-19.28
-17.79
-17.33
-17.65
-18.06
-17.70
-15.89
-12.40
-7.68
-2.70
1.32
3.36
3.00
0.65
-2.53
-4.98
-5.31
-2.97
1.46
6.38
9.71
9.79
6.16
-0.25
-7.46
-13.36
-16.58
-16.98
-15.50
-13.48
-11.87
-10.94
-10.28
-9.26
-7.39
-4.46
-0.44
4.77
11.36
19.45
28.87
38.89
48.29
55.60
59.72
60.33
58.15
54.66
51.50
49.71
49.24
48.97
47.16
42.24
33.50
21.32
7.07
-7.35
-19.90
-28.90
-33.32
-33.18
-29.69
-25.11
-21.99
-22.26
-26.34
-32.84
-39.08
-42.24
-40.51
-33.71
-23.25
-11.38
-0.45
7.65
11.60
10.67
4.83
-5.12
-17.32
-29.01
-37.22
-39.71
-35.87
-27.03
-15.98
-5.89
0.90
3.67
3.32
1.80
1.14
2.77
7.08
13.52
20.89
27.71
32.61
34.73
34.07
31.62
29.02
27.82
28.64
30.73
32.26
31.31
26.84
19.34
10.48
2.19
-4.21
-8.47
-11.01
-12.33
-12.50
-11.21
-8.32
-4.33
-0.46
1.85
1.73
-0.62
-3.93
-6.47
-6.88
-4.76
-0.77
3.68
7.13
8.65
8.19
6.54
5.00
4.78
6.56
10.23
14.87
19.19
21.95
22.35
20.27
16.25
11.36
7.04
4.78
5.74
10.17
17.02
23.94
27.84
25.98
17.13
2.19
-15.91
-33.26
-46.20
-52.54
-51.98
-45.96
-36.90
-27.38
-19.50
-14.46
-12.51
-12.98
-14.62
-15.91
-15.51
-12.68
-7.51
-0.94
5.57
10.52
12.92
12.60
10.23
7.02
4.29
2.98
3.37
5.15
7.61
10.01
11.94
13.52
15.36
18.17
22.30
27.19
31.24
32.25
28.30
18.70
4.50
-11.63
-26.34
-36.74
-41.31
-40.13
-34.62
-26.72
-18.22
-10.38
-3.82
1.25
4.93
7.49
9.36
11.03
12.97
15.35
17.85
19.51
18.97
14.92
6.82
-4.59
-17.12
-27.75
-33.60
-33.08
-26.53
-16.02
-4.50
5.29
11.70
14.43
14.19
12.22
9.76
7.77
6.69
6.39
6.12
4.72
1.12
-5.13
-13.44
-22.37
-30.13
-35.41
-37.84
-38.00
-36.88
-35.18
-32.99
-29.79
-25.06
-18.70
-11.30
-3.97
2.18
6.45
8.73
9.34
8.73
7.14
4.51
0.69
-4.38
-10.38
-16.65
-22.33
-26.65
-29.19
-30.01
-29.54
-28.30
-26.56
-24.13
-20.49
-15.22
-8.52
-1.53
4.00
6.32
4.46
-1.30
-9.46
-17.87
-24.49
-27.94
-27.74
-24.27
-18.45
-11.52
-4.80
0.60
3.96
5.21
4.92
4.21
4.36
6.43
10.95
17.65
25.52
33.10
38.97
42.26
42.99
41.98
40.49
39.67
40.03
41.35
42.82
43.52
42.82
40.61
37.38
34.04
31.68
31.20
32.97
36.50
40.47
43.04
42.49
37.85
29.31
18.15
6.30
-4.41
-12.73
-18.30
-21.46
-22.99
-23.72
-24.28
-25.05
-26.09
-27.22
-28.06
-28.22
-27.40
-25.54
-22.96
-20.28
-18.31
-17.77
-18.98
-21.71
-25.15
-28.21
-29.87
-29.55
-27.30
-23.78
-20.00
-17.02
-15.58
-15.89
-17.42
-18.99
-19.03
-16.17
-9.94
-1.12
8.26
15.61
18.74
16.80
10.60
2.30
-5.42
-10.28
-11.02
-7.56
-0.84
7.62
16.11
23.13
27.58
29.06
27.89
25.01
21.70
19.27
18.65
20.10
23.12
26.58
29.00
29.10
26.20
20.48
12.95
5.06
-1.81
-6.82
-9.88
-11.52
-12.54
-13.45
-14.10
-13.55
-10.60
-4.52
4.04
12.87
18.77
18.91
12.21
0.12
-13.83
-25.50
-31.74
-31.54
-26.09
-17.87
-9.50
-2.83
1.23
2.57
1.43
-1.70
-6.06
-10.62
-14.15
-15.58
-14.39
-10.90
-6.22
-1.88
0.82
1.24
-0.46
-3.47
-6.89
-10.12
-13.08
-16.02
-19.08
-22.07
-24.45
-25.64
-25.38
-23.72
-20.87
-16.87
-11.60
-5.06
2.21
9.10
14.37
17.46
18.96
20.46
23.65
29.24
36.44
43.35
48.00
49.38
47.78
44.28
39.94
35.13
29.62
23.07
15.62
8.06
1.46
-3.40
-6.47
-8.46
-10.30
-12.55
-15.06
-16.89
-16.91
-14.42
-9.70
-4.11
0.37
2.01
0.11
-4.64
-10.24
-13.99
-13.30
-6.60
5.92
21.99
37.59
48.07
49.79
41.58
25.36
5.48
-12.93
-25.83
-31.50
-30.65
-25.55
-18.82
-12.52
-7.85
-5.31
-4.85
-6.08
-8.24
-10.29
-11.24
-10.33
-7.33
-2.54
3.17
8.62
12.55
14.06
12.94
9.92
6.50
4.36
4.68
7.49
11.63
15.20
16.43
14.45
9.66
3.57
-1.86
-4.82
-4.29
-0.27
6.24
13.45
19.29
21.90
20.13
13.96
4.41
-6.62
-16.93
-24.57
-28.23
-27.54
-23.04
-16.03
-8.19
-1.27
3.42
5.22
4.26
1.38
-2.24
-5.36
-7.02
-6.69
-4.36
-0.64
3.42
6.58
7.78
6.55
3.26
-1.08
-5.15
-7.92
-8.94
-8.45
-7.15
-5.82
-5.02
-4.82
-4.82
-4.10
-1.53
3.92
12.56
23.52
34.67
43.16
46.39
43.11
34.02
21.55
8.99
-0.76
-6.09
-7.03
-4.91
-1.70
0.80
1.45
-0.04
-3.20
-7.19
-11.12
-14.33
-16.40
-17.03
-16.06
-13.46
-9.63
-5.45
-2.20
-1.08
-2.59
-6.31
-10.97
-15.18
-17.98
-19.22
-19.33
-18.78
-17.64
-15.48
-11.73
-6.31
-0.01
5.56
8.51
7.38
1.88
-6.95
-16.85
-25.15
-29.51
-28.74
-23.11
-14.23
-4.53
3.62
8.60
9.89
8.07
4.40
0.37
-2.71
-3.92
-2.75
0.89
6.56
13.30
19.80
24.76
27.32
27.43
25.92
24.11
23.25
24.00
26.18
28.97
31.33
32.42
32.01
30.60
29.37
29.74
32.75
38.27
44.68
49.13
48.55
41.00
26.72
8.24
-10.56
-25.95
-35.71
-39.66
-39.23
-36.45
-33.01
-29.77
-26.91
-24.31
-21.91
-19.82
-18.22
-17.21
-16.74
-16.71
-17.02
-17.64
-18.56
-19.76
-21.11
-22.38
-23.29
-23.63
-23.28
-22.25
-20.66
-18.68
-16.41
-13.78
-10.48
-6.10
-0.52
5.75
11.39
14.59
13.75
8.26
-1.04
-12.10
-22.32
-29.58
-32.77
-32.02
-28.30
-22.86
-16.85
-11.07
-6.05
-2.08
0.81
2.90
4.73
6.94
10.01
14.00
18.51
22.69
25.60
26.55
25.37
22.59
19.27
16.61
15.56
16.43
18.77
21.59
23.67
24.09
22.61
19.83
17.11
16.02
17.65
21.94
27.45
31.63
31.76
26.12
14.77
-0.26
-15.68
-28.07
-35.13
-36.23
-32.41
-25.64
-18.10
-11.45
-6.63
-3.91
-3.07
-3.59
-4.81
-6.01
-6.60
-6.27
-5.20
-3.94
-3.24
-3.65
-5.28
-7.70
-10.13
-11.80
-12.32
-11.77
-10.55
-9.18
-7.99
-7.03
-6.09
-4.77
-2.66
0.50
4.57
8.82
11.94
12.44
9.24
2.31
-7.04
-16.45
-23.36
-25.96
-23.90
-18.26
-11.03
-4.19
0.92
3.91
5.05
4.89
3.95
2.57
1.05
-0.20
-0.68
0.04
2.03
4.84
7.57
9.25
9.25
7.63
5.21
3.25
2.98
5.01
9.14
14.40
19.48
23.20
24.93
24.73
23.18
21.23
19.84
19.84
21.65
25.10
29.39
33.20
35.07
33.91
29.44
22.29
13.74
5.31
-1.73
-6.67
-9.39
-10.27
-10.11
-9.91
-10.67
-13.06
-17.15
-22.20
-26.88
-29.67
-29.44
-25.80
-19.26
-10.94
-2.19
5.69
11.63
14.80
14.64
11.01
4.44
-3.75
-11.68
-17.39
-19.52
-17.74
-12.76
-5.82
1.77
8.98
14.96
18.77
19.28
15.45
6.95
-5.27
-18.91
-30.95
-38.59
-40.17
-35.69
-26.55
-14.99
-3.34
6.48
13.23
16.43
16.34
13.80
10.10
6.64
4.59
4.67
6.90
10.66
14.91
18.55
20.76
21.39
20.96
20.49
21.03
23.26
27.12
31.91
36.55
40.03
41.78
41.88
40.97
40.06
40.11
41.59
44.11
46.35
46.34
42.29
33.38
20.34
5.23
-9.29
-20.98
-28.82
-33.04
-34.68
-34.90
-34.46
-33.75
-32.99
-32.54
-32.86
-34.27
-36.65
-39.37
-41.62
-42.76
-42.70
-41.89
-41.02
-40.63
-40.81
-41.21
-41.26
-40.51
-38.77
-36.26
-33.40
-30.73
-28.73
-27.59
-27.00
-26.08
-23.56
-18.39
-10.47
-1.04
7.46
12.27
11.46
4.83
-5.99
-18.17
-28.84
-36.04
-39.16
-38.71
-35.75
-31.34
-26.25
-20.92
-15.59
-10.41
-5.48
-0.92
3.19
6.77
9.80
12.27
14.23
15.79
17.06
18.21
19.43
20.93
22.83
25.13
27.55
29.65
30.97
31.33
31.09
31.10
32.27
35.04
38.81
41.94
42.31
38.33
29.86
18.51
7.03
-1.79
-6.34
-6.78
-4.80
-2.66
-2.13
-3.86
-7.27
-11.11
-14.14
-15.59
-15.25
-13.36
-10.32
-6.58
-2.61
1.03
3.75
5.08
4.87
3.48
1.66
0.25
-0.15
0.55
1.94
3.31
4.04
3.88
3.05
2.21
2.20
3.68
6.76
10.75
14.29
15.65
13.44
7.13
-2.61
-14.09
-25.14
-33.78
-38.80
-39.92
-37.75
-33.45
-28.33
-23.47
-19.51
-16.57
-14.32
-12.33
-10.30
-8.20
-6.29
-4.90
-4.27
-4.47
-5.47
-7.22
-9.55
-12.07
-13.97
-14.16
-11.62
-5.90
2.45
11.96
20.69
27.06
30.46
31.50
31.65
32.57
35.30
39.73
44.54
47.72
47.37
42.49
33.47
21.93
10.17
0.28
-6.56
-10.31
-11.84
-12.40
-12.95
-13.90
-15.02
-15.80
-15.75
-14.65
-12.63
-10.09
-7.54
-5.47
-4.28
-4.22
-5.40
-7.75
-11.04
-14.82
-18.46
-21.24
-22.46
-21.69
-18.91
-14.57
-9.53
-4.89
-1.61
-0.11
-0.07
-0.47
-0.12
1.74
4.85
7.84
8.76
5.89
-1.35
-12.08
-24.16
-34.97
-42.31
-45.06
-43.27
-37.94
-30.54
-22.56
-15.18
-9.08
-4.43
-0.85
2.36
5.94
10.40
15.70
21.19
25.80
28.44
28.49
26.14
22.32
18.38
15.55
14.45
14.85
15.92
16.63
16.23
14.66
12.60
11.41
12.59
17.16
24.93
34.14
41.65
43.92
38.41
24.75
5.24
-15.79
-33.41
-43.77
-45.20
-38.51
-26.31
-12.03
1.13
10.87
16.07
16.71
13.64
8.27
2.09
-3.58
-7.85
-10.33
-11.00
-10.15
-8.21
-5.70
-3.15
-1.03
0.33
0.83
0.62
-0.07
-0.95
-1.86
-2.71
-3.37
-3.52
-2.71
-0.63
2.55
5.88
7.73
6.35
0.59
-9.45
-22.22
-35.17
-45.60
-51.48
-52.02
-47.70
-39.91
-30.42
-20.95
-12.86
-7.02
-3.72
-2.60
-2.71
-2.65
-1.01
3.20
10.17
19.07
28.35
36.20
41.29
43.24
42.77
41.38
40.64
41.57
44.26
47.94
51.50
54.09
55.54
56.35
57.48
59.82
63.77
68.95
74.09
77.22
76.20
69.35
56.19
37.74
16.38
-4.92
-23.44
-37.51
-46.68
-51.49
-52.88
-51.76
-48.85
-44.82
-40.40
-36.42
-33.58
-32.28
-32.38
-33.37
-34.56
-35.33
-35.31
-34.47
-32.99
-31.12
-29.04
-26.82
-24.39
-21.68
-18.69
-15.61
-12.73
-10.31
-8.43
-6.87
-5.11
-2.52
1.21
5.74
9.91
11.98
10.28
3.96
-6.34
-18.52
-29.53
-36.42
-37.35
-32.20
-22.48
-10.71
0.46
9.00
13.87
15.01
13.10
9.25
4.72
0.69
-1.84
-2.15
0.09
4.88
11.83
20.25
29.31
38.13
45.94
52.05
55.89
57.00
55.15
50.54
43.83
36.24
29.30
24.54
23.04
24.87
28.86
32.68
33.57
29.18
18.66
2.96
-15.35
-33.13
-47.77
-58.07
-64.26
-67.47
-68.82
-68.82
-67.44
-64.45
-59.87
-53.99
-47.09
-39.19
-30.07
-19.67
-8.54
1.85
9.58
13.07
11.94
7.38
1.70
-2.55
-3.69
-1.50
2.80
7.20
9.82
9.60
6.74
2.67
-0.41
-0.24
4.60
13.94
25.80
36.81
43.30
42.67
34.41
20.35
4.11
-10.24
-19.41
-21.84
-17.88
-9.30
1.43
11.94
20.38
25.61
27.14
25.09
20.06
13.14
5.71
-0.85
-5.53
-8.08
-9.04
-9.51
-10.62
-12.90
-16.07
-19.12
-20.79
-20.17
-17.15
-12.42
-7.21
-2.86
-0.32
0.06
-1.36
-3.59
-5.28
-5.13
-2.41
2.58
8.49
13.31
15.14
13.09
7.73
0.96
-4.80
-7.57
-6.63
-2.58
3.15
9.05
14.19
18.44
22.16
25.84
29.68
33.51
36.90
39.43
40.87
41.27
40.84
39.81
38.24
35.99
32.85
28.70
23.71
18.32
13.04
8.21
3.82
-0.47
-5.01
-9.81
-14.38
-18.05
-20.33
-21.51
-22.66
-25.24
-30.31
-37.95
-46.99
-55.49
-61.53
-63.98
-62.88
-59.19
-54.29
-49.31
-44.74
-40.42
-35.79
-30.32
-23.78
-16.44
-8.92
-2.03
3.50
7.28
9.25
9.71
9.17
8.20
7.36
7.06
7.56
8.90
10.92
13.33
15.79
18.10
20.32
22.84
26.18
30.63
35.77
40.33
42.38
40.05
32.49
20.54
6.66
-5.86
-14.19
-17.12
-15.39
-11.22
-7.16
-5.01
-5.27
-7.35
-10.13
-12.60
-14.14
-14.50
-13.63
-11.57
-8.57
-5.18
-2.26
-0.72
-1.10
-3.31
-6.60
-9.83
-11.94
-12.42
-11.40
-9.62
-8.09
-7.64
-8.57
-10.40
-11.89
-11.43
-7.77
-0.76
8.24
16.61
21.38
20.52
13.87
3.30
-8.12
-17.39
-22.76
-24.20
-23.01
-20.97
-19.43
-18.83
-18.84
-18.75
-17.92
-16.05
-13.15
-9.34
-4.67
0.88
7.27
14.26
21.19
27.12
31.13
32.73
32.10
30.12
27.92
26.36
25.76
25.94
26.64
27.96
30.43
34.42
39.52
44.05
45.61
42.11
33.10
20.34
7.20
-2.80
-7.66
-7.67
-5.07
-2.78
-2.88
-5.88
-10.73
-15.74
-19.42
-21.11
-20.91
-19.44
-17.41
-15.30
-13.34
-11.61
-10.27
-9.68
-10.37
-12.69
-16.50
-20.95
-24.64
-26.21
-24.90
-21.00
-15.80
-11.15
-8.94
-10.65
-17.11
-28.44
-43.92
-61.91
-79.83
-94.54
-103.20
-104.20
-97.81
-86.04
-71.74
-57.45
-44.40
-32.40
-20.44
-7.72
5.55
18.06
28.03
34.27
36.82
37.10
37.16
38.63
41.96
46.18
49.51
50.18
47.21
40.74
31.96
22.61
14.52
9.18
7.47
9.36
13.80
18.63
21.04
18.41
9.48
-4.68
-20.60
-33.43
-38.65
-33.94
-20.07
-0.61
19.47
35.66
45.39
48.49
46.70
42.57
38.35
35.27
33.57
32.84
32.55
32.38
32.23
31.90
30.92
28.40
23.42
15.64
5.62
-5.12
-14.73
-21.76
-25.78
-27.34
-27.55
-27.31
-26.77
-25.40
-22.36
-17.23
-10.42
-3.08
3.53
8.88
13.65
19.64
28.82
42.13
58.63
75.46
88.85
95.49
93.81
84.39
69.52
52.62
37.49
27.86
26.62
34.77
50.17
67.18
77.96
75.33
56.11
22.98
-16.23
-51.75
-75.88
-85.73
-83.38
-73.84
-62.05
-50.91
-41.04
-31.94
-23.48
-16.44
-12.14
-11.43
-13.93
-17.94
-21.22
-21.99
-19.72
-15.21
-10.21
-6.44
-4.88
-5.38
-6.86
-7.89
-7.47
-5.38
-2.27
0.85
3.25
4.97
6.76
9.63
14.05
19.48
24.46
27.21
26.42
21.84
14.29
5.30
-3.58
-11.21
-17.01
-20.75
-22.42
-22.02
-19.66
-15.69
-10.65
-5.21
0.11
5.04
9.66
14.21
18.85
23.51
27.84
31.40
34.06
36.17
38.56
42.17
47.52
54.31
61.28
66.53
67.99
64.00
53.78
37.57
16.64
-7.04
-31.23
-53.81
-73.05
-87.69
-96.82
-99.85
-96.53
-87.13
-72.65
-54.84
-35.93
-18.07
-2.79
9.30
18.44
25.30
30.58
34.67
37.72
39.89
41.58
43.51
46.41
50.63
55.82
60.79
63.84
63.02
56.55
43.10
22.13
-5.80
-38.71
-73.22
-105.03
-129.90
-144.72
-148.26
-141.27
-125.93
-105.04
-81.42
-57.58
-35.75
-17.77
-4.91
2.52
5.20
4.63
2.57
0.48
-0.85
-1.34
-1.30
-1.25
-1.68
-2.96
-5.30
-8.60
-12.38
-15.69
-17.32
-16.20
-12.00
-5.46
1.60
6.86
8.36
5.22
-2.01
-11.58
-21.18
-28.80
-33.25
-34.36
-32.80
-29.71
-26.31
-23.61
-22.34
-22.67
-24.13
-25.54
-25.26
-21.71
-14.00
-2.52
11.01
24.02
33.99
39.41
40.31
38.21
35.31
33.60
34.05
36.41
39.59
42.24
43.41
42.84
41.06
39.27
39.11
42.17
49.29
59.76
70.94
78.67
78.63
68.07
47.20
19.31
-10.29
-36.26
-55.00
-65.47
-68.80
-67.16
-62.55
-56.26
-48.94
-41.07
-33.30
-26.48
-21.33
-18.15
-16.64
-16.08
-15.65
-14.81
-13.52
-12.16
-11.29
-11.34
-12.38
-14.08
-15.86
-17.16
-17.68
-17.42
-16.51
-14.92
-12.30
-8.15
-2.34
4.44
10.51
13.69
12.29
6.09
-3.27
-12.72
-19.05
-20.19
-16.11
-8.60
-0.49
5.68
8.48
7.87
4.89
0.97
-2.62
-5.15
-6.29
-5.92
-3.92
-0.15
5.29
11.89
18.55
23.96
27.04
27.52
26.03
23.83
22.16
21.58
21.82
22.22
22.41
22.82
24.61
28.77
35.23
42.33
47.29
47.46
41.67
30.94
18.06
6.41
-1.56
-5.14
-5.23
-3.53
-1.57
-0.15
0.63
0.89
0.64
-0.36
-2.34
-5.29
-8.82
-12.35
-15.31
-17.38
-18.56
-19.13
-19.50
-20.21
-21.68
-24.12
-27.27
-30.45
-32.69
-33.23
-31.87
-29.07
-25.52
-21.50
-16.51
-9.49
0.25
12.19
24.33
33.86
38.49
37.38
31.47
22.69
12.88
3.10
-6.28
-15.00
-22.36
-27.23
-28.69
-26.70
-22.35
-17.31
-12.95
-9.69
-6.87
-3.32
1.86
8.70
16.32
23.20
27.78
29.05
26.96
22.77
19.04
19.31
27.09
44.48
70.85
102.24
131.96
152.35
157.36
144.56
115.97
77.16
35.11
-4.27
-37.79
-65.17
-87.87
-107.30
-123.38
-134.27
-137.45
-131.36
-116.75
-96.92
-76.59
-60.08
-49.84
-45.97
-46.90
-50.55
-54.99
-58.39
-58.49
-52.60
-38.57
-16.35
10.97
37.81
58.32
69.04
70.41
65.92
59.63
53.56
46.65
36.08
19.76
-1.48
-23.51
-40.61
-48.11
-44.27
-30.90
-12.17
7.19
23.37
34.31
39.77
40.85
39.41
37.60
37.56
41.11
49.49
62.95
80.55
100.09
118.44
132.32
139.30
138.57
130.96
118.33
102.22
82.82
58.85
28.59
-8.36
-49.64
-90.19
-123.89
-146.17
-156.02
-156.21
-151.81
-147.49
-145.44
-144.67
-142.10
-134.36
-119.44
-97.46
-70.42
-41.46
-13.86
9.69
27.64
39.65
46.29
48.44
46.58
40.68
30.51
16.51
0.44
-14.71
-25.54
-29.58
-26.37
-17.68
-6.71
3.17
9.67
12.16
11.51
9.56
8.30
9.47
14.27
23.25
36.29
52.38
69.65
85.66
97.86
104.18
103.38
95.11
79.56
57.33
29.32
-2.95
-37.03
-69.58
-97.04
-116.60
-127.21
-130.07
-128.05
-124.68
-122.87
-124.03
-127.88
-132.77
-136.05
-134.46
-124.57
-103.72
-71.33
-29.87
15.15
56.76
88.92
108.65
116.64
116.06
110.39
101.56
89.73
74.43
56.23
37.64
22.50
14.28
14.43
21.62
32.40
42.73
49.51
51.49
49.38
45.22
41.39
39.82
41.45
46.07
52.58
59.49
65.43
69.65
72.14
73.48
74.32
74.98
75.11
73.87
70.39
64.29
56.11
47.14
38.98
32.75
28.58
25.37
21.31
14.68
4.76
-7.91
-21.78
-35.07
-46.32
-54.60
-59.25
-59.67
-55.39
-46.52
-34.07
-20.00
-6.65
3.93
10.42
12.34
9.65
2.55
-8.42
-22.16
-36.92
-50.66
-61.92
-70.39
-76.96
-83.01
-89.35
-95.41
-99.14
-97.61
-88.06
-68.94
-40.67
-5.79
31.30
65.28
91.12
105.36
106.98
97.55
80.60
60.44
40.88
24.37
11.76
2.70
-3.70
-8.19
-11.25
-13.10
-14.01
-14.39
-14.68
-14.99
-14.82
-13.12
-8.88
-2.04
5.82
11.45
10.99
1.70
-16.61
-41.07
-66.65
-87.94
-101.13
-105.01
-100.75
-90.71
-77.21
-61.71
-44.94
-27.46
-10.16
5.68
18.77
28.32
34.26
37.12
37.56
36.09
32.96
28.46
23.31
18.81
16.65
18.28
24.28
33.97
45.52
56.49
64.62
68.43
67.50
62.52
55.10
47.49
42.09
40.71
43.64
49.25
54.15
54.30
46.63
30.36
7.51
-17.70
-40.39
-56.52
-63.94
-62.57
-54.04
-40.88
-25.97
-12.04
-1.34
4.70
5.78
2.75
-2.62
-8.23
-12.33
-14.06
-13.71
-12.41
-11.61
-12.38
-15.02
-18.91
-22.87
-25.66
-26.48
-25.28
-22.66
-19.62
-17.13
-15.78
-15.63
-16.25
-16.83
-16.43
-14.35
-10.46
-5.45
-0.72
1.94
1.14
-3.65
-11.58
-20.62
-28.19
-32.17
-31.64
-27.20
-20.55
-13.71
-8.32
-5.06
-3.54
-2.71
-1.47
0.87
4.50
9.18
14.62
20.36
26.01
31.53
36.88
41.70
45.23
46.60
45.22
41.39
35.60
28.91
23.03
19.56
19.03
20.65
22.84
23.92
23.04
19.37
12.98
5.62
0.24
-0.11
6.99
22.58
45.51
72.48
96.70
110.46
108.51
89.61
56.45
14.63
-28.85
-69.71
-97.26
-104.54
-95.08
-78.48
-62.84
-52.01
-46.16
-42.91
-40.39
-37.43
-34.93
-34.47
-36.31
-39.35
-42.21
-44.29
-45.36
-45.44
-43.98
-40.93
-35.86
-27.38
-13.99
4.52
26.52
48.96
68.24
81.55
86.79
83.21
71.95
55.47
36.76
18.90
4.83
-3.28
-4.50
-0.06
7.01
13.13
15.53
13.29
7.58
1.00
-3.70
-4.87
-2.53
2.05
7.44
12.87
18.53
25.29
34.08
45.33
58.64
73.07
87.37
100.52
111.76
120.46
125.69
125.82
118.56
101.49
73.11
33.82
-13.72
-65.17
-115.94
-162.55
-203.20
-237.28
-264.08
-281.97
-288.44
-281.24
-259.71
-225.49
-182.04
-133.49
-83.66
-35.81
7.19
42.69
68.60
84.16
90.39
89.63
84.34
75.89
64.30
49.15
31.02
12.39
-2.85
-11.22
-11.47
-5.55
2.19
7.10
6.42
0.59
-6.99
-11.47
-8.63
3.45
23.70
48.69
74.01
95.79
111.70
121.13
124.64
123.17
117.51
108.19
95.68
80.72
64.30
47.22
29.53
10.32
-12.09
-39.22
-71.34
-106.59
-140.72
-167.62
-180.64
-174.57
-147.73
-103.29
-48.95
5.11
49.32
77.61
88.65
85.20
72.07
53.98
34.41
15.68
-0.44
-12.44
-19.56
-22.66
-24.48
-28.70
-37.99
-52.05
-66.76
-75.40
-71.15
-50.19
-13.82
31.26
74.89
106.79
120.05
113.30
90.68
59.85
28.94
3.89
-12.72
-21.33
-23.89
-22.56
-18.90
-14.06
-9.29
-6.28
-7.08
-13.23
-25.07
-41.24
-58.88
-74.20
-83.20
-82.46
-69.81
-45.11
-10.63
28.99
67.64
99.25
119.40
126.41
121.36
107.14
87.08
63.78
38.72
12.54
-14.22
-40.44
-64.12
-82.46
-92.36
-91.19
-77.63
-52.52
-19.03
17.69
51.61
77.22
90.89
91.69
81.37
63.76
43.46
24.62
9.92
0.08
-5.85
-9.79
-13.68
-18.76
-25.25
-32.52
-39.49
-45.11
-48.65
-49.81
-48.72
-45.85
-41.73
-36.61
-30.19
-21.71
-10.67
2.35
15.16
24.47
27.13
21.68
9.21
-7.12
-23.60
-37.71
-48.93
-58.19
-66.48
-73.66
-78.19
-78.03
-72.02
-60.64
-45.87
-30.17
-15.39
-2.22
9.52
20.33
30.33
39.20
46.65
52.90
58.87
65.55
73.12
80.22
84.22
82.26
72.89
57.10
38.18
20.50
7.72
1.49
1.23
4.80
9.78
14.35
17.62
19.27
19.19
17.28
13.55
8.41
2.77
-2.09
-5.00
-5.36
-3.56
-0.93
0.61
-0.69
-5.69
-13.84
-23.39
-31.93
-37.41
-38.83
-36.53
-31.80
-26.08
-20.35
-15.05
-10.52
-7.46
-6.95
-9.99
-16.72
-25.99
-35.69
-43.70
-48.82
-51.12
-51.42
-50.46
-48.20
-43.90
-36.88
-27.34
-16.72
-7.20
-0.63
2.42
3.00
3.29
5.57
11.20
20.04
30.68
41.17
49.95
56.37
60.71
63.65
65.59
66.29
65.07
61.28
54.98
47.06
39.10
32.86
29.77
30.50
34.70
40.90
46.67
49.15
46.09
36.79
22.74
7.18
-6.16
-14.76
-18.28
-18.43
-17.70
-17.89
-19.20
-20.46
-20.22
-17.79
-13.70
-9.24
-5.50
-2.74
-0.31
2.70
6.74
11.34
15.39
17.71
17.80
16.11
13.83
12.19
11.82
12.37
12.67
11.36
7.60
1.47
-6.01
-13.30
-18.91
-21.88
-22.10
-20.43
-18.55
-18.67
-22.99
-32.90
-48.39
-67.62
-87.21
-103.04
-111.51
-110.63
-100.67
-84.02
-64.28
-45.24
-29.78
-19.38
-14.06
-12.78
-13.91
-15.77
-16.88
-16.14
-12.93
-7.18
0.62
9.52
18.35
26.05
31.98
36.10
38.91
41.21
43.72
46.78
50.26
53.67
56.59
58.97
61.26
64.06
67.45
70.54
71.54
68.36
59.74
45.95
29.01
11.91
-2.48
-12.45
-17.80
-19.49
-18.87
-16.96
-14.20
-10.64
-6.27
-1.39
3.45
7.62
10.66
12.50
13.46
14.03
14.61
15.32
15.90
15.81
14.50
11.71
7.53
2.52
-2.57
-7.01
-10.31
-12.33
-13.23
-13.36
-13.17
-13.18
-14.00
-16.24
-20.40
-26.57
-34.27
-42.38
-49.41
-53.87
-54.72
-51.73
-45.49
-37.29
-28.70
-21.24
-15.92
-13.10
-12.37
-12.78
-13.05
-12.07
-9.25
-4.61
1.27
7.54
13.50
18.72
23.09
26.69
29.65
32.07
34.10
36.01
38.07
40.48
43.18
45.99
48.87
52.21
56.88
63.71
72.60
81.81
87.96
87.13
76.44
55.57
27.14
-4.19
-33.41
-56.82
-72.73
-81.14
-82.86
-78.71
-69.49
-56.36
-41.23
-26.66
-15.13
-8.15
-5.74
-6.59
-8.84
-10.94
-12.19
-12.75
-13.27
-14.50
-16.91
-20.65
-25.49
-30.90
-36.06
-40.06
-42.02
-41.36
-37.88
-31.91
-24.30
-16.40
-9.87
-6.38
-7.08
-12.12
-20.31
-29.35
-36.41
-39.12
-36.34
-28.48
-17.26
-5.00
6.16
14.82
20.51
23.53
24.58
24.44
23.73
22.87
22.10
21.58
21.39
21.52
21.88
22.32
22.73
23.10
23.62
24.57
26.18
28.43
30.98
33.37
35.35
37.10
39.33
42.88
48.15
54.50
60.20
62.89
60.52
52.35
39.36
23.94
9.06
-2.81
-10.31
-13.27
-12.34
-8.36
-2.08
5.89
14.82
23.76
31.48
36.80
38.95
37.85
34.07
28.57
22.27
15.66
8.70
0.98
-7.88
-17.80
-28.09
-37.49
-44.53
-47.92
-46.96
-41.64
-32.68
-21.38
-9.58
0.68
7.44
9.32
6.01
-1.58
-11.44
-21.19
-28.75
-33.02
-34.13
-33.11
-31.34
-29.88
-29.16
-28.85
-28.25
-26.64
-23.63
-19.35
-14.39
-9.66
-6.10
-4.37
-4.67
-6.67
-9.58
-12.46
-14.52
-15.33
-14.86
-13.36
-11.15
-8.51
-5.61
-2.53
0.84
4.92
10.53
18.65
29.67
42.53
54.42
61.23
59.15
46.38
24.27
-3.04
-30.20
-52.78
-68.70
-78.19
-82.81
-83.90
-81.75
-75.89
-66.02
-52.85
-38.27
-24.61
-13.64
-6.00
-1.16
1.90
4.02
5.39
5.67
4.39
1.44
-2.71
-7.16
-10.86
-13.10
-13.75
-13.19
-12.07
-10.91
-9.73
-8.12
-5.55
-1.92
2.11
5.16
5.75
3.02
-2.79
-10.44
-18.21
-24.61
-28.78
-30.52
-30.00
-27.52
-23.42
-18.18
-12.56
-7.49
-3.79
-1.78
-1.07
-0.73
0.34
2.96
7.34
13.08
19.40
25.42
30.50
34.27
36.69
37.97
38.42
38.42
38.40
38.72
39.68
41.50
44.41
48.71
54.71
62.46
71.25
79.27
83.77
81.77
71.35
52.71
28.54
3.35
-18.06
-32.22
-37.98
-36.46
-30.17
-21.72
-12.99
-4.88
2.37
8.60
13.48
16.51
17.41
16.33
13.94
11.08
8.39
5.91
3.11
-0.75
-6.05
-12.43
-18.71
-23.32
-24.94
-23.07
-18.22
-11.68
-4.92
0.95
5.43
8.55
10.42
10.89
9.38
5.17
-2.15
-12.20
-23.68
-34.74
-43.51
-48.76
-50.12
-48.07
-43.51
-37.47
-30.82
-24.35
-18.72
-14.47
-11.87
-10.78
-10.63
-10.58
-9.81
-7.77
-4.22
0.83
7.27
15.02
24.02
34.06
44.72
55.33
65.17
73.64
80.40
85.34
88.31
89.04
87.10
82.15
74.27
64.04
52.35
39.88
26.59
11.72
-5.75
-26.31
-49.31
-72.92
-94.66
-112.27
-124.21
-129.81
-128.84
-121.17
-106.79
-86.14
-60.76
-33.56
-8.43
10.72
21.14
22.26
15.80
5.11
-6.00
-14.61
-19.41
-20.84
-20.44
-19.96
-20.55
-22.40
-24.91
-27.07
-27.83
-26.36
-22.12
-15.03
-5.67
4.63
13.83
19.70
20.68
16.58
8.88
0.26
-6.32
-8.74
-6.45
-0.47
7.20
14.45
19.73
22.37
22.48
20.61
17.56
14.18
11.33
9.77
9.97
11.97
15.22
18.76
21.56
22.89
22.60
21.16
19.40
18.10
17.61
17.64
17.40
15.99
12.93
8.59
4.11
1.06
0.64
3.00
7.01
10.54
11.39
8.20
1.21
-7.76
-15.89
-20.51
-20.05
-14.63
-5.98
3.37
11.05
15.69
17.22
16.63
15.29
14.33
14.18
14.54
14.66
13.73
11.26
7.20
1.93
-3.94
-9.78
-15.13
-19.80
-23.79
-27.13
-29.73
-31.28
-31.26
-29.15
-24.66
-18.00
-10.05
-2.28
3.43
5.34
2.41
-5.23
-16.13
-27.88
-37.75
-43.57
-44.30
-40.27
-32.88
-23.98
-15.22
-7.65
-1.59
3.14
6.98
10.32
13.44
16.46
19.49
22.65
26.11
29.93
33.98
37.79
40.66
41.82
40.87
38.00
34.07
30.38
28.18
28.32
31.13
36.68
44.89
55.41
66.96
76.96
81.71
77.60
62.73
38.24
8.36
-21.07
-44.74
-59.78
-66.33
-66.63
-63.37
-58.23
-51.51
-42.82
-32.10
-20.46
-9.89
-2.50
0.57
-0.29
-3.36
-6.40
-7.80
-7.18
-5.35
-3.71
-3.42
-4.84
-7.52
-10.59
-13.27
-15.21
-16.36
-16.66
-15.90
-13.75
-10.15
-5.71
-1.82
-0.20
-2.11
-7.67
-15.54
-23.37
-28.72
-30.04
-27.25
-21.59
-14.91
-8.85
-4.35
-1.56
-0.20
0.06
-0.49
-1.52
-2.44
-2.40
-0.54
3.56
9.56
16.35
22.42
26.49
28.09
27.79
26.88
26.85
28.69
32.43
37.12
41.21
43.20
42.30
38.77
33.94
29.73
27.98
29.63
34.23
39.88
43.83
43.50
37.55
26.46
12.48
-1.28
-12.00
-18.09
-19.49
-17.28
-12.96
-7.76
-2.43
2.58
6.83
9.73
10.64
9.16
5.42
0.03
-6.10
-12.08
-17.31
-21.60
-25.07
-28.00
-30.67
-33.18
-35.48
-37.39
-38.71
-39.34
-39.18
-38.14
-36.01
-32.58
-27.80
-22.17
-16.70
-12.72
-11.32
-12.79
-16.40
-20.69
-24.10
-25.61
-25.10
-23.11
-20.40
-17.56
-14.74
-11.84
-8.78
-5.64
-2.64
0.06
2.57
5.32
8.89
13.74
19.91
26.96
34.06
40.26
44.85
47.61
48.79
48.93
48.58
48.10
47.61
47.15
46.89
47.21
48.55
51.06
54.31
57.13
57.87
55.05
47.88
36.67
22.75
7.98
-5.77
-17.03
-24.88
-28.84
-28.71
-24.56
-16.82
-6.38
5.42
16.97
26.68
33.20
35.66
33.72
27.61
18.13
6.46
-6.06
-18.23
-29.20
-38.59
-46.33
-52.49
-57.09
-60.12
-61.57
-61.48
-59.93
-57.12
-53.31
-48.90
-44.43
-40.47
-37.46
-35.47
-34.18
-33.06
-31.76
-30.36
-29.41
-29.63
-31.38
-34.35
-37.58
-39.73
-39.64
-36.67
-30.80
-22.53
-12.65
-2.05
8.39
17.82
25.49
30.90
34.00
35.30
35.68
36.17
37.46
39.65
42.21
44.31
45.16
44.37
42.09
38.91
35.82
33.93
34.16
36.83
41.19
45.30
46.46
42.26
31.73
16.10
-1.42
-16.81
-26.88
-30.41
-28.36
-23.06
-16.96
-11.65
-7.65
-4.87
-3.18
-2.84
-4.31
-7.78
-12.82
-18.40
-23.29
-26.65
-28.43
-29.35
-30.54
-32.92
-36.77
-41.51
-45.95
-48.70
-48.72
-45.74
-40.23
-33.22
-25.80
-18.83
-12.83
-8.11
-4.95
-3.60
-4.15
-6.22
-8.89
-10.88
-11.05
-8.91
-4.81
0.26
5.16
9.15
12.04
14.01
15.34
16.16
16.45
16.30
16.02
16.17
17.26
19.48
22.44
25.29
27.11
27.22
25.51
22.39
18.54
14.68
11.36
9.02
7.99
8.51
10.67
14.36
19.32
25.22
31.73
38.39
44.40
48.51
49.21
45.31
36.64
24.40
10.97
-1.02
-9.67
-14.51
-16.53
-17.38
-18.49
-20.31
-22.33
-23.55
-23.20
-21.17
-18.11
-14.99
-12.62
-11.31
-10.84
-10.75
-10.69
-10.68
-11.03
-12.15
-14.15
-16.63
-18.76
-19.58
-18.49
-15.50
-11.36
-7.25
-4.23
-2.82
-2.77
-3.30
-3.67
-3.62
-3.59
-4.47
-7.01
-11.30
-16.58
-21.57
-24.97
-26.10
-25.08
-22.63
-19.69
-16.99
-14.87
-13.32
-12.14
-11.03
-9.57
-7.34
-3.87
1.13
7.61
15.04
22.49
28.84
33.13
34.88
34.29
32.13
29.43
27.12
25.77
25.47
26.00
27.13
28.72
30.85
33.74
37.50
41.95
46.40
49.63
50.07
46.21
37.19
23.40
6.65
-10.19
-24.11
-32.99
-36.35
-35.34
-32.05
-28.46
-25.67
-23.69
-21.95
-19.91
-17.54
-15.35
-13.92
-13.45
-13.52
-13.40
-12.49
-10.79
-8.90
-7.67
-7.64
-8.77
-10.32
-11.30
-10.92
-8.90
-5.56
-1.57
2.35
5.73
8.41
10.30
11.19
10.62
8.02
3.10
-3.74
-11.30
-17.78
-21.49
-21.50
-18.10
-12.71
-7.26
-3.37
-1.76
-2.12
-3.42
-4.48
-4.49
-3.14
-0.54
3.05
7.38
12.26
17.38
22.17
25.88
27.82
27.75
26.12
24.01
22.72
23.22
25.78
29.85
34.42
38.46
41.41
43.41
45.25
48.02
52.56
58.89
65.91
71.45
72.98
68.45
57.22
40.45
20.77
1.34
-15.17
-27.36
-35.15
-39.30
-40.70
-39.88
-37.06
-32.43
-26.47
-20.07
-14.37
-10.31
-8.36
-8.47
-10.19
-12.97
-16.42
-20.35
-24.62
-29.00
-33.04
-36.10
-37.58
-37.20
-35.11
-31.88
-28.23
-24.68
-21.33
-17.89
-14.04
-9.96
-6.51
-5.05
-6.86
-12.37
-20.71
-29.84
-37.34
-41.24
-40.75
-36.44
-29.81
-22.77
-16.98
-13.44
-12.34
-13.07
-14.38
-14.71
-12.72
-7.73
-0.05
9.22
18.52
26.48
32.35
36.07
38.03
38.79
38.76
38.17
37.19
36.03
34.94
34.18
34.00
34.81
37.32
42.42
50.70
61.68
73.31
82.15
84.49
77.79
61.87
39.08
13.27
-11.63
-32.91
-49.47
-61.36
-68.97
-72.56
-72.24
-68.49
-62.39
-55.57
-49.68
-45.82
-44.14
-43.98
-44.24
-43.96
-42.73
-40.70
-38.53
-36.94
-36.36
-36.70
-37.33
-37.37
-36.02
-32.94
-28.39
-23.05
-17.84
-13.56
-10.74
-9.56
-9.86
-11.21
-12.99
-14.43
-14.77
-13.45
-10.32
-5.74
-0.52
4.42
8.34
10.98
12.65
14.05
15.92
18.79
22.77
27.56
32.57
37.00
39.99
40.63
38.12
32.00
22.47
10.62
-1.61
-11.81
-17.71
-17.81
-11.88
-0.99
12.71
26.44
37.38
43.30
43.12
37.48
29.02
21.96
21.04
29.83
48.98
75.37
102.63
123.00
129.95
120.25
94.89
58.30
16.68
-23.95
-59.07
-85.94
-103.29
-110.75
-108.58
-97.78
-80.32
-59.13
-37.69
-19.19
-5.74
1.98
4.62
3.51
0.00
-4.99
-11.03
-18.05
-26.11
-35.24
-45.30
-55.87
-66.11
-74.85
-81.03
-84.10
-84.55
-83.92
-84.24
-87.24
-93.42
-101.60
-109.08
-112.35
-108.11
-94.34
-70.89
-39.59
-3.69
33.00
67.11
96.29
119.36
136.03
146.56
151.45
151.48
147.73
141.57
134.51
127.89
122.60
118.94
116.70
115.42
114.67
114.33
114.60
115.81
118.06
120.83
122.78
121.85
115.59
101.75
78.92
47.15
8.39
-33.57
-73.59
-106.37
-127.84
-136.28
-132.79
-120.75
-104.65
-88.54
-75.06
-65.07
-58.02
-52.81
-48.45
-44.50
-41.11
-38.70
-37.69
-38.28
-40.39
-43.82
-48.27
-53.27
-57.81
-60.30
-58.90
-52.39
-40.97
-26.71
-12.97
-3.13
0.70
-1.55
-8.24
-17.04
-26.01
-34.09
-40.78
-45.55
-47.47
-45.38
-38.63
-27.64
-14.03
-0.09
12.05
21.12
26.98
30.49
32.96
35.55
38.84
42.72
46.58
49.70
51.68
52.69
53.34
54.28
55.80
57.71
59.58
61.33
63.63
67.92
75.87
88.32
104.35
120.86
132.97
135.26
123.49
95.97
54.43
3.61
-49.95
-99.71
-140.64
-170.02
-187.24
-193.04
-188.54
-174.67
-152.27
-122.59
-87.86
-51.50
-17.74
9.18
26.10
31.62
26.48
13.25
-4.47
-22.94
-39.29
-51.95
-60.77
-66.60
-70.70
-73.95
-76.22
-76.24
-72.00
-61.84
-45.53
-24.97
-3.81
13.87
25.13
29.30
27.97
23.88
19.45
15.73
12.47
8.90
4.85
1.24
-0.25
1.81
7.69
16.21
25.22
32.72
37.69
40.54
42.62
45.39
49.59
55.02
60.93
66.82
73.07
80.79
91.12
104.14
118.46
131.44
140.14
142.39
137.34
125.52
108.25
87.21
64.14
40.88
19.37
1.39
-11.93
-20.52
-25.61
-29.26
-33.70
-40.57
-50.48
-63.02
-76.98
-90.85
-103.18
-112.86
-119.30
-122.46
-122.76
-120.87
-117.44
-112.80
-106.84
-99.13
-89.40
-77.99
-66.03
-55.24
-47.21
-42.66
-40.94
-40.32
-38.63
-34.35
-27.18
-18.09
-8.81
-0.98
4.46
7.43
8.59
8.80
8.82
9.09
9.81
11.14
13.30
16.64
21.44
27.66
34.78
41.82
47.56
51.06
51.90
50.53
48.05
45.97
45.67
47.87
52.28
57.58
61.77
62.85
59.64
52.32
42.57
33.20
27.30
27.54
35.55
51.53
73.98
99.64
123.57
139.83
142.87
129.19
98.87
55.98
7.60
-38.43
-75.86
-101.66
-116.12
-121.68
-121.22
-116.81
-109.44
-99.57
-87.85
-75.49
-64.03
-54.63
-47.58
-42.25
-37.59
-32.90
-28.26
-24.45
-22.58
-23.37
-26.68
-31.43
-35.90
-38.30
-37.44
-33.07
-25.90
-17.28
-8.63
-0.99
5.20
10.01
13.67
16.35
18.08
18.87
18.98
18.94
19.35
20.61
22.60
24.72
26.08
25.97
24.17
21.13
17.88
15.72
15.72
18.42
23.66
30.76
38.78
46.75
53.64
58.33
59.67
56.88
50.17
41.16
32.72
28.05
29.53
37.93
52.33
70.72
90.69
109.76
125.08
133.17
130.35
113.91
83.75
43.25
-1.21
-42.20
-73.65
-92.65
-99.76
-97.74
-89.86
-78.41
-64.52
-48.83
-32.60
-18.10
-8.21
-5.26
-10.01
-21.45
-37.39
-55.52
-74.25
-92.93
-111.60
-130.41
-149.04
-166.29
-180.04
-187.38
-185.46
-172.79
-150.53
-122.59
-94.34
-70.37
-52.45
-39.21
-27.56
-15.16
-2.04
9.66
17.55
21.18
22.77
26.04
33.95
46.83
62.14
75.89
84.85
88.04
86.97
84.54
83.67
86.14
92.13
100.49
109.35
116.74
120.90
120.48
114.77
103.99
89.57
74.10
60.99
53.59
54.19
63.17
78.76
97.26
113.81
123.46
122.32
108.42
82.30
46.81
6.52
-33.35
-67.92
-93.51
-108.04
-111.21
-104.31
-89.84
-71.02
-51.14
-32.94
-18.39
-8.46
-3.33
-2.49
-4.86
-8.82
-12.56
-15.08
-16.91
-20.06
-26.66
-37.22
-49.55
-59.28
-61.94
-55.40
-41.02
-22.95
-5.93
6.86
14.64
18.26
18.62
15.47
7.59
-5.95
-24.34
-44.64
-62.50
-73.85
-76.26
-69.61
-55.98
-38.75
-21.40
-6.47
4.95
13.15
19.24
24.47
29.70
35.19
40.94
46.80
52.68
58.46
63.95
68.69
72.03
73.33
72.28
69.30
65.42
61.93
59.58
57.93
55.40
49.97
40.51
27.70
14.01
2.64
-4.26
-6.80
-7.39
-9.40
-15.27
-25.06
-36.41
-45.86
-50.59
-49.88
-45.29
-39.76
-36.22
-36.36
-40.25
-46.61
-53.61
-59.60
-63.66
-65.65
-66.11
-65.96
-66.06
-66.80
-67.94
-68.69
-67.98
-64.81
-58.35
-48.09
-33.93
-16.52
2.56
20.80
35.31
43.67
44.84
39.60
30.26
19.68
10.17
2.87
-2.28
-5.89
-8.49
-10.10
-10.45
-9.37
-7.05
-4.10
-1.27
1.01
2.82
4.84
7.95
12.77
19.29
26.79
34.23
40.78
46.26
51.26
56.60
62.73
69.15
74.53
77.39
77.01
74.02
70.15
67.20
66.00
65.88
65.20
62.48
57.33
50.53
43.24
36.00
28.28
18.77
6.43
-8.65
-25.07
-40.62
-53.08
-60.90
-63.31
-60.30
-52.54
-41.53
-29.70
-20.13
-15.86
-18.66
-28.22
-42.01
-56.01
-66.28
-70.49
-68.96
-64.37
-60.68
-61.39
-68.02
-79.42
-92.15
-101.89
-104.92
-99.33
-85.46
-65.72
-43.86
-24.05
-9.79
-2.82
-2.42
-5.42
-7.29
-3.91
6.61
23.09
41.80
58.16
68.81
72.73
71.12
66.19
59.71
52.39
44.17
35.27
26.64
20.05
17.17
18.55
23.13
28.60
32.55
33.61
32.05
29.50
28.06
29.21
33.35
39.95
48.06
56.91
66.02
74.99
83.23
89.90
94.15
95.34
93.07
87.12
77.50
64.70
49.95
35.03
21.56
9.98
-0.99
-13.87
-30.98
-52.80
-77.10
-99.56
-115.41
-121.35
-116.64
-102.96
-83.49
-61.85
-41.45
-25.27
-15.67
-13.95
-19.81
-31.20
-44.84
-57.38
-66.62
-72.16
-75.00
-76.60
-77.79
-78.32
-77.19
-73.42
-66.68
-57.49
-46.75
-35.24
-23.28
-11.06
0.86
11.13
17.86
19.22
14.45
4.42
-8.36
-20.33
-27.91
-28.36
-20.45
-4.61
17.36
42.83
68.98
93.40
114.53
131.61
144.17
151.49
152.07
143.91
125.41
96.71
60.74
23.28
-8.34
-27.34
-29.55
-14.58
14.14
50.26
85.94
113.82
128.89
129.84
119.20
101.88
82.53
63.00
41.40
13.49
-24.22
-71.46
-123.11
-170.83
-206.38
-224.81
-225.60
-211.45
-186.06
-152.46
-113.08
-71.00
-31.00
0.85
19.18
21.88
11.46
-5.72
-22.28
-32.98
-36.64
-35.86
-34.92
-37.22
-43.60
-52.29
-60.20
-64.45
-63.49
-57.29
-46.88
-33.78
-19.54
-5.59
6.85
16.95
24.35
29.31
32.60
35.39
38.85
43.77
50.24
57.53
64.25
68.99
70.97
70.64
69.75
70.68
75.30
83.92
94.85
105.11
111.83
113.71
111.68
108.24
105.78
104.90
103.69
98.31
84.61
59.91
24.17
-19.93
-67.79
-114.07
-153.86
-183.55
-201.39
-207.61
-204.11
-193.80
-179.45
-162.88
-144.39
-123.14
-98.04
-68.95
-37.70
-8.15
14.52
25.53
22.52
6.78
-16.54
-39.81
-55.08
-56.34
-41.20
-11.40
27.91
69.70
106.98
134.44
149.52
152.52
145.77
132.42
115.28
96.14
75.98
55.34
34.71
14.46
-5.36
-24.90
-43.99
-61.36
-74.36
-79.56
-74.04
-56.61
-28.58
6.55
44.09
79.14
107.55
126.34
134.03
130.85
118.92
101.90
84.24
69.97
61.49
58.75
59.10
58.01
50.38
32.42
3.16
-34.61
-74.50
-108.06
-127.30
-127.74
-110.32
-81.40
-50.47
-26.49
-14.48
-14.13
-20.85
-28.67
-33.28
-33.59
-31.34
-29.27
-29.24
-31.42
-34.74
-38.07
-40.95
-43.55
-45.81
-46.79
-44.52
-36.65
-21.57
0.47
26.80
52.84
73.34
84.21
83.92
74.01
58.43
41.85
27.93
18.13
11.74
6.74
1.11
-6.31
-15.80
-27.31
-40.95
-56.97
-74.92
-92.49
-105.18
-107.33
-94.58
-66.45
-27.55
13.67
47.99
68.89
74.51
67.30
52.03
33.53
15.38
-0.07
-11.08
-16.29
-15.06
-8.24
1.74
11.55
18.32
20.70
19.19
15.39
11.00
7.23
4.79
4.34
6.94
13.94
26.15
42.96
61.75
78.27
88.07
88.10
77.87
59.47
36.54
12.72
-9.49
-28.97
-45.49
-59.09
-69.78
-77.85
-84.22
-90.33
-97.39
-105.25
-111.71
-112.79
-104.16
-83.18
-50.48
-10.29
30.78
66.02
90.83
103.88
106.73
102.34
93.41
81.58
67.75
53.00
39.18
28.57
22.49
20.19
18.60
13.68
2.52
-14.83
-34.81
-51.60
-59.38
-54.60
-37.18
-10.40
20.46
49.63
72.20
84.88
86.37
77.39
60.52
39.60
18.81
1.73
-9.53
-14.62
-14.66
-11.74
-8.30
-6.82
-9.32
-16.73
-28.07
-40.23
-48.89
-50.43
-43.82
-31.34
-17.51
-6.74
-1.30
-0.58
-2.13
-3.44
-3.34
-2.28
-1.61
-2.66
-6.25
-12.79
-22.50
-35.19
-49.84
-64.19
-75.17
-79.90
-76.84
-66.51
-51.25
-34.43
-19.39
-8.43
-2.15
0.71
2.89
7.67
17.59
33.21
52.69
72.41
88.41
98.10
101.20
99.67
96.47
94.06
93.38
93.67
93.16
90.05
83.13
72.01
57.02
39.10
19.75
0.96
-15.11
-26.77
-33.44
-36.02
-36.63
-37.91
-41.90
-49.30
-59.19
-69.36
-77.26
-80.89
-79.78
-75.22
-69.83
-66.49
-67.23
-72.41
-80.62
-89.33
-95.86
-98.27
-95.68
-88.16
-76.30
-60.99
-43.47
-25.30
-8.31
5.85
16.13
22.45
25.74
27.49
29.04
31.01
33.28
35.27
36.37
36.38
35.45
34.28
33.85
34.85
37.25
40.49
43.80
46.46
47.97
47.69
45.64
42.67
40.05
38.65
38.76
39.70
39.71
36.79
29.29
18.19
7.14
0.17
-1.21
1.00
2.21
-2.64
-16.14
-37.98
-63.82
-87.41
-103.92
-112.03
-112.71
-107.16
-95.86
-74.28
-44.71
-15.52
5.43
17.44
22.85
24.17
24.37
24.20
25.05
26.81
29.24
32.33
35.69
38.01
38.11
35.92
32.38
29.23
27.09
26.04
25.61
24.72
21.85
16.43
9.40
2.48
-2.69
-6.22
-9.15
-12.83
-18.38
-26.46
-36.87
-48.63
-60.65
-72.13
-83.05
-93.40
-102.54
-109.01
-110.82
-105.68
-91.68
-68.05
-35.62
3.03
44.19
83.75
117.95
144.06
160.87
168.94
170.57
169.35
169.10
172.61
180.33
189.56
194.85
189.80
169.76
134.19
87.57
38.03
-5.56
-36.87
-53.95
-59.12
-56.95
-51.88
-46.59
-41.97
-38.03
-34.98
-33.60
-34.72
-38.50
-43.98
-49.39
-53.06
-54.32
-53.80
-52.99
-53.53
-56.33
-61.21
-67.00
-72.14
-75.29
-75.85
-74.04
-70.76
-67.13
-63.97
-61.40
-58.70
-54.52
-47.47
-36.87
-23.25
-8.38
5.26
15.47
21.14
22.61
21.39
19.29
17.73
17.24
17.54
18.02
18.16
17.77
16.93
15.78
14.38
12.72
10.87
9.06
7.63
6.93
7.14
8.25
10.07
12.40
15.08
17.96
20.88
23.62
26.02
28.09
30.09
32.51
35.85
40.43
46.27
53.13
60.64
68.39
75.91
82.62
87.92
91.36
92.93
93.14
92.77
92.42
91.98
90.57
86.93
80.25
70.82
60.20
50.63
43.97
40.71
39.53
37.79
32.46
21.33
3.79
-18.96
-44.37
-69.31
-90.96
-107.44
-118.12
-123.44
-124.65
-123.35
-121.12
-119.23
-118.44
-118.83
-119.73
-119.76
-117.31
-111.19
-101.30
-88.93
-76.49
-66.57
-60.87
-59.45
-60.72
-62.18
-61.41
-57.04
-48.92
-37.95
-25.37
-12.26
0.72
13.24
25.12
36.18
46.28
55.36
63.49
70.66
76.60
80.55
81.34
77.76
69.13
55.70
38.87
20.90
4.29
-8.98
-17.99
-22.97
-25.01
-25.52
-25.70
-26.21
-27.27
-28.80
-30.66
-32.59
-34.00
-33.77
-30.34
-22.32
-9.29
7.64
25.88
42.08
53.43
58.56
57.88
53.07
45.95
37.58
27.88
16.13
1.84
-14.46
-31.01
-45.38
-55.37
-59.93
-59.46
-55.48
-49.89
-44.28
-39.47
-35.67
-32.91
-31.45
-31.92
-34.92
-40.52
-47.83
-55.08
-60.25
-61.79
-59.27
-53.32
-45.13
-35.75
-25.68
-15.01
-3.98
6.46
14.69
18.96
18.25
13.00
5.09
-2.79
-8.16
-9.58
-7.03
-1.63
5.04
11.59
17.34
22.29
26.98
31.95
37.47
43.25
48.59
52.70
55.02
55.49
54.45
52.43
49.82
46.84
43.64
40.44
37.70
35.87
35.20
35.46
36.13
36.87
38.10
40.98
47.05
57.24
70.84
85.06
95.70
98.72
91.89
75.84
53.86
30.94
12.14
0.96
-1.57
3.14
12.22
22.52
31.59
37.78
40.62
40.57
38.62
35.95
33.72
32.93
34.02
36.51
38.20
36.86
31.40
22.10
10.13
-3.02
-16.02
-28.08
-38.97
-50.53
-63.59
-77.12
-89.02
-97.69
-102.73
-104.93
-106.06
-108.53
-117.28
-134.62
-158.37
-183.09
-203.08
-214.25
-215.13
-207.03
-193.40
-181.92
-177.61
-180.27
-185.96
-190.57
-191.38
-187.47
-179.38
-146.76
-85.55
-10.35
58.59
111.35
148.78
175.72
195.93
211.40
222.93
227.27
222.61
210.06
192.01
170.32
147.14
124.95
106.74
95.51
90.54
90.50
94.78
102.14
109.37
114.62
115.52
110.34
99.44
83.82
66.02
50.02
38.34
31.21
28.64
29.25
31.23
34.48
39.41
46.69
56.83
68.21
77.79
84.34
86.33
81.68
69.19
50.58
27.55
8.37
-0.63
-9.74
-22.98
-36.06
-48.89
-63.15
-81.47
-106.39
-139.38
-181.58
-232.82
-288.38
-341.82
-386.40
-415.52
-426.18
-421.25
-409.56
-403.03
-409.93
-428.22
-447.96
-457.02
-446.55
-415.69
-369.67
-317.34
-267.11
-223.18
-183.92
-146.13
-108.87
-74.07
-45.15
-20.70
2.68
28.07
56.73
88.85
123.34
157.22
186.78
208.82
228.37
251.73
282.29
319.09
359.11
399.20
436.21
467.29
490.85
515.49
550.15
598.63
657.94
722.09
786.13
847.34
904.93
907.55
824.98
663.78
463.26
263.79
87.71
-57.41
-170.65
-254.42
-314.38
-350.74
-366.03
-366.12
-358.08
-345.59
-327.87
-303.43
-273.89
-244.81
-217.06
-191.20
-168.42
-150.65
-138.43
-130.62
-126.18
-125.35
-129.00
-133.02
-132.41
-123.94
-108.04
-87.76
-67.12
-49.99
-39.02
-34.83
-33.92
-31.99
-26.40
-17.20
-7.00
1.19
4.99
3.34
-3.15
-11.76
-19.27
-23.32
-23.05
-19.03
-12.60
-5.44
0.89
5.31
7.30
6.86
4.40
0.64
-3.51
-6.93
-8.57
-7.78
-4.62
-0.09
4.26
6.92
7.21
5.65
3.76
3.35
5.62
10.61
17.06
22.99
26.61
27.03
24.45
20.03
15.26
11.30
9.34
10.08
13.49
18.49
22.80
23.29
16.95
2.24
-19.83
-45.59
-69.98
-88.41
-98.27
-99.52
-93.96
-83.86
-70.89
-55.93
-39.55
-22.95
-8.06
3.05
9.08
10.23
8.04
4.65
1.72
-0.16
-1.52
-3.47
-6.88
-11.87
-17.67
-22.87
-25.94
-25.76
-22.01
-15.34
-7.17
0.86
7.35
11.54
13.38
13.25
11.62
8.80
4.88
-0.02
-5.56
-11.09
-15.68
-18.31
-18.18
-14.83
-8.31
0.74
11.09
21.07
28.96
33.51
34.38
32.33
29.05
26.55
26.48
29.51
35.18
42.13
48.66
53.44
55.91
56.43
56.04
55.92
57.01
59.60
63.18
66.49
67.82
65.49
58.45
46.89
32.53
18.26
7.19
1.28
0.36
1.98
2.26
-2.44
-14.03
-31.85
-52.95
-73.21
-88.71
-96.78
-96.38
-88.02
-73.50
-55.63
-37.79
-23.31
-14.65
-12.59
-15.95
-22.01
-27.44
-29.60
-27.44
-21.69
-14.20
-6.91
-0.75
4.73
11.40
21.92
38.71
62.77
92.79
124.92
153.23
171.23
173.25
156.66
122.99
77.58
27.93
-18.54
-56.29
-82.57
-97.03
-101.75
-99.37
-92.06
-81.31
-68.51
-55.21
-43.00
-33.20
-25.99
-21.84
-20.43
-20.54
-20.67
-19.95
-18.35
-16.20
-13.99
-11.22
-8.91
-7.99
-8.91
-11.79
-17.26
-26.42
-40.21
-59.61
-75.77
-82.11
-77.34
-65.31
-50.65
-36.76
-26.13
-20.36
-23.41
-31.74
-42.37
-51.73
-56.22
-53.79
-46.16
-38.35
-31.87
-30.40
-33.83
-38.72
-37.54
-21.89
12.83
62.96
118.38
166.84
197.82
206.97
194.83
166.26
128.18
87.78
50.21
22.10
11.94
26.26
65.91
122.87
182.48
228.32
248.10
234.61
191.07
129.15
61.86
-2.07
-60.09
-112.98
-161.53
-204.72
-244.17
-279.46
-308.20
-328.77
-342.17
-350.60
-354.53
-351.67
-313.57
-233.16
-130.39
-34.39
38.02
83.97
107.78
116.49
117.23
115.63
111.04
103.12
94.17
87.94
86.67
89.89
95.02
98.39
96.02
82.49
58.48
29.19
3.39
-11.43
-12.89
-3.81
10.11
22.93
29.45
29.24
26.21
25.46
30.38
40.61
52.00
61.62
67.77
69.43
66.88
63.60
60.23
57.52
55.18
52.62
49.43
45.09
38.85
30.16
19.57
6.69
-3.55
-5.90
1.20
14.03
25.64
30.02
25.72
14.57
0.25
-12.93
-23.11
-31.16
-39.73
-51.49
-64.39
-76.24
-84.99
-89.36
-89.02
-85.59
-81.53
-78.79
-77.15
-74.04
-66.56
-53.26
-34.91
-14.12
4.72
19.60
29.49
34.83
36.73
35.45
29.99
19.39
3.95
-14.41
-32.35
-46.50
-54.44
-55.53
-48.71
-35.61
-18.93
-1.38
14.79
28.11
37.68
43.45
46.19
47.14
47.44
48.20
50.00
52.54
54.61
54.36
50.15
41.19
27.91
11.69
-5.21
-20.34
-31.77
-38.47
-40.47
-38.61
-34.20
-28.68
-23.42
-19.27
-16.47
-14.83
-14.16
-14.69
-17.11
-22.23
-30.27
-40.28
-49.98
-56.46
-57.37
-52.03
-41.86
-29.81
-19.12
-12.09
-9.37
-9.91
-11.69
-12.56
-10.99
-6.45
0.66
9.26
17.95
25.36
30.41
32.40
31.03
26.47
19.27
10.41
1.21
-6.86
-12.55
-15.16
-14.77
-12.12
-8.12
-3.43
1.86
7.98
14.93
21.87
27.04
28.25
24.01
14.46
1.79
-10.35
-18.14
-19.06
-12.81
-1.19
12.73
25.80
35.73
41.38
42.70
40.35
35.48
29.60
24.39
21.40
21.68
25.37
31.63
38.92
45.52
50.08
51.92
51.11
48.19
43.93
39.10
34.34
30.09
26.56
23.67
21.07
18.23
14.72
10.32
5.17
-0.51
-6.81
-14.33
-24.13
-37.03
-52.79
-69.64
-84.59
-94.42
-96.98
-92.14
-81.69
-68.52
-55.36
-43.87
-34.39
-26.46
-19.48
-13.24
-7.94
-3.83
-0.88
1.36
3.48
5.77
7.89
8.92
7.73
3.67
-2.92
-10.77
-18.09
-23.35
-25.79
-25.48
-23.08
-19.22
-14.20
-8.03
-0.71
7.42
15.51
22.33
26.68
27.89
26.08
22.27
18.04
15.06
14.59
17.04
22.03
28.52
35.24
41.00
44.87
46.21
44.55
39.60
31.32
20.11
6.83
-7.24
-20.75
-32.61
-42.20
-49.35
-54.10
-56.43
-56.09
-52.81
-46.60
-38.11
-28.70
-20.11
-13.92
-11.00
-11.24
-13.53
-16.15
-17.18
-14.91
-8.27
2.96
17.94
34.85
51.21
64.57
73.41
77.68
78.99
79.98
83.37
90.76
101.94
114.83
126.28
133.28
133.96
128.18
117.12
102.59
86.09
68.44
49.92
30.88
12.13
-4.96
-18.96
-29.12
-35.81
-40.32
-44.18
-48.35
-52.83
-56.76
-59.09
-59.22
-57.27
-53.92
-49.83
-45.33
-40.34
-34.84
-29.27
-24.68
-22.30
-22.93
-26.23
-30.67
-34.06
-34.49
-31.18
-24.80
-17.07
-9.88
-4.49
-1.05
1.18
3.26
5.87
9.10
12.47
15.40
17.59
19.08
20.10
20.66
20.37
18.56
14.67
8.65
1.09
-6.91
-14.19
-19.83
-23.25
-23.96
-21.33
-14.43
-2.42
14.64
34.85
54.08
66.70
67.37
53.33
26.06
-8.69
-42.70
-68.29
-81.01
-80.95
-71.82
-58.84
-46.29
-36.25
-28.72
-22.77
-17.69
-13.48
-10.56
-9.04
-8.39
-7.49
-5.35
-1.79
2.21
4.85
4.30
-0.31
-8.34
-17.81
-26.20
-31.41
-32.61
-30.43
-26.37
-22.06
-18.52
-16.00
-14.27
-13.16
-12.88
-13.91
-16.61
-20.80
-25.62
-29.91
-32.69
-33.49
-32.42
-29.87
-26.15
-21.40
-15.68
-9.26
-2.77
3.00
7.48
10.64
13.07
15.68
19.21
23.90
29.34
34.83
39.70
43.66
46.83
49.58
52.26
54.97
57.43
59.07
59.30
57.84
54.96
51.59
49.10
48.79
51.22
55.61
59.79
60.75
55.78
43.66
25.38
3.98
-16.51
-32.51
-42.13
-45.59
-44.73
-41.86
-38.63
-35.50
-31.96
-27.21
-20.96
-13.77
-6.93
-1.82
0.75
0.86
-0.63
-2.58
-4.24
-5.61
-7.37
-10.49
-15.61
-22.58
-30.43
-37.58
-42.45
-43.96
-41.87
-36.73
-29.78
-22.54
-16.49
-12.81
-12.10
-14.26
-18.50
-23.42
-27.43
-29.14
-27.78
-23.40
-16.84
-9.43
-2.54
2.76
5.85
6.61
5.37
2.84
0.07
-1.73
-1.52
1.34
6.77
13.96
21.64
28.47
33.56
36.71
38.39
39.53
41.05
43.54
46.99
50.78
53.88
55.34
54.80
52.91
51.20
51.44
54.61
60.09
65.55
67.91
64.73
55.49
41.73
26.16
11.10
-2.61
-15.61
-28.93
-42.78
-55.87
-65.94
-70.84
-69.67
-63.09
-52.90
-41.38
-30.82
-23.49
-21.50
-26.36
-37.95
-53.67
-68.53
-76.54
-73.15
-57.42
-32.87
-6.35
14.65
24.96
23.66
13.96
1.47
-8.43
-12.69
-11.22
-6.09
-0.04
5.03
8.64
11.33
13.85
16.37
18.28
18.64
16.87
13.26
9.01
5.77
4.93
7.05
11.66
17.50
23.04
27.08
29.03
28.88
26.86
23.08
17.43
9.81
0.53
-9.49
-18.88
-26.43
-31.81
-35.94
-40.54
-47.01
-55.17
-62.89
-66.81
-64.04
-53.88
-38.30
-21.12
-6.00
5.25
13.28
20.19
27.82
36.44
44.69
50.79
54.05
55.69
58.16
63.72
72.93
84.20
94.55
101.12
102.42
98.67
91.17
81.04
68.42
52.28
31.07
3.86
-28.65
-63.63
-96.31
-121.05
-133.05
-130.25
-114.60
-91.95
-70.28
-56.88
-55.58
-65.42
-81.27
-96.08
-103.50
-99.72
-83.94
-57.79
-24.33
12.55
48.46
78.87
99.84
109.10
106.86
95.95
80.93
66.58
56.47
52.18
53.28
57.95
63.90
68.98
71.65
71.12
67.42
61.43
54.78
49.54
47.51
49.43
54.41
59.89
62.52
59.47
49.71
34.51
16.69
-0.74
-15.78
-27.97
-37.92
-46.55
-54.50
-62.08
-69.59
-77.52
-86.35
-96.06
-105.64
-113.11
-116.19
-113.22
-103.93
-89.57
-72.49
-55.32
-40.19
-28.25
-19.55
-13.44
-9.03
-5.77
-3.61
-2.84
-3.46
-4.78
-5.49
-4.19
-0.25
5.64
11.66
15.69
16.37
13.81
9.51
5.57
3.63
4.24
6.78
10.07
12.97
14.78
15.21
14.05
11.07
6.21
-0.03
-6.38
-11.00
-12.13
-8.83
-1.43
8.46
18.64
27.02
32.32
34.26
33.52
31.25
28.69
26.86
26.35
27.32
29.54
32.60
36.12
39.90
43.76
47.37
49.87
49.97
46.46
38.95
28.41
16.94
6.94
-0.13
-4.27
-6.80
-9.26
-12.44
-16.01
-18.98
-20.64
-21.13
-21.40
-22.50
-24.85
-28.01
-31.08
-33.43
-35.08
-36.68
-38.94
-42.11
-45.81
-49.18
-51.46
-52.31
-51.94
-50.90
-49.68
-48.40
-46.60
-43.42
-38.07
-30.39
-21.16
-12.04
-4.91
-1.11
-0.76
-2.64
-4.67
-4.81
-1.78
4.46
12.81
21.60
29.17
34.43
37.06
37.45
36.30
34.39
32.25
30.17
28.23
26.49
25.11
24.27
24.06
24.31
24.52
23.96
22.02
18.54
14.03
9.65
6.82
6.65
9.53
15.07
22.36
30.43
38.49
45.70
50.77
51.80
46.72
34.34
15.40
-7.10
-28.71
-45.17
-53.99
-55.22
-50.94
-43.81
-35.78
-27.46
-18.55
-8.73
1.62
11.32
18.96
23.59
25.10
24.06
21.25
17.23
12.18
6.04
-1.17
-9.06
-16.98
-24.07
-29.49
-32.39
-31.99
-27.83
-20.12
-10.21
-0.53
5.90
6.60
0.60
-11.00
-25.40
-39.11
-49.18
-54.06
-53.72
-49.24
-42.17
-33.98
-25.82
-18.44
-12.20
-7.14
-3.01
0.59
3.97
7.28
10.51
13.68
16.84
20.09
23.26
25.78
26.71
25.16
20.91
14.75
8.33
3.54
1.71
3.28
7.92
15.21
24.97
37.10
50.82
64.02
73.53
76.31
71.13
59.46
45.05
32.14
23.39
18.76
15.90
11.91
5.08
-4.24
-14.14
-22.42
-27.77
-30.25
-30.82
-30.60
-30.21
-29.77
-29.13
-28.27
-27.46
-27.13
-27.54
-28.56
-29.71
-30.36
-30.20
-29.44
-28.85
-29.43
-31.91
-36.26
-41.47
-45.77
-47.33
-45.03
-39.02
-30.79
-22.62
-16.66
-14.09
-14.67
-16.99
-19.09
-19.37
-17.18
-13.01
-8.14
-3.99
-1.47
-0.65
-0.74
-0.46
1.39
5.43
11.48
18.67
25.79
31.83
36.21
38.90
40.26
40.79
40.95
41.03
41.16
41.28
41.24
40.87
40.11
39.13
38.38
38.46
39.75
41.97
43.84
43.22
37.82
26.30
9.21
-10.70
-29.26
-42.29
-47.27
-44.29
-35.89
-25.87
-17.67
-13.18
-12.37
-13.86
-15.98
-17.54
-18.23
-18.41
-18.56
-18.97
-19.57
-20.02
-20.03
-19.54
-18.76
-18.06
-17.74
-17.95
-18.57
-19.29
-19.72
-19.48
-18.27
-15.87
-12.26
-7.75
-3.10
0.54
1.92
0.25
-4.40
-10.88
-17.20
-21.27
-21.61
-17.96
-11.36
-3.70
3.00
7.42
9.40
9.88
10.42
12.50
16.90
23.47
31.30
39.16
46.00
51.10
54.09
54.75
52.96
48.83
42.91
36.23
30.08
25.50
22.83
21.44
20.16
17.98
14.64
10.74
7.24
4.61
2.30
-1.10
-6.99
-15.73
-26.08
-35.54
-41.49
-42.39
-38.47
-31.49
-23.88
-17.65
-13.87
-12.62
-13.41
-15.62
-18.66
-21.87
-24.46
-25.54
-24.43
-20.93
-15.64
-9.75
-4.70
-1.59
-0.86
-2.19
-4.77
-7.74
-10.49
-12.83
-14.71
-16.00
-16.17
-14.41
-9.96
-2.78
6.18
14.98
21.41
23.92
22.28
17.71
12.27
7.84
5.26
3.97
2.52
-0.48
-5.52
-11.79
-17.62
-21.28
-21.85
-19.61
-15.73
-11.58
-7.97
-4.65
-0.63
5.32
13.86
24.56
36.00
46.12
52.94
55.02
51.82
43.65
31.75
18.26
6.21
-0.80
0.45
11.62
31.68
56.86
81.60
100.55
110.41
110.80
103.82
92.61
79.79
66.64
53.36
39.88
26.61
14.59
4.99
-1.57
-5.43
-7.72
-9.72
-12.25
-15.34
-18.23
-19.89
-19.59
-17.25
-13.54
-9.57
-6.32
-4.26
-3.13
-2.11
-0.35
2.66
6.79
11.43
15.83
19.49
22.19
23.85
24.29
23.13
20.00
14.86
8.22
1.08
-5.47
-10.76
-14.72
-17.82
-20.63
-23.46
-26.18
-28.38
-29.64
-29.75
-28.80
-26.99
-24.50
-21.48
-18.01
-14.29
-10.58
-7.18
-4.28
-1.89
0.18
2.19
4.30
6.47
8.43
9.90
10.66
10.73
10.39
10.01
9.97
10.40
11.17
11.74
11.31
9.05
4.53
-1.93
-9.18
-15.52
-19.45
-20.38
-19.03
-17.22
-17.04
-19.89
-25.81
-33.45
-40.75
-45.83
-47.73
-46.60
-43.40
-39.40
-35.63
-32.65
-30.53
-29.09
-28.07
-27.26
-26.56
-25.95
-25.42
-24.96
-24.53
-24.06
-23.42
-22.35
-20.46
-17.35
-12.89
-7.67
-3.03
-0.89
-2.97
-9.93
-20.76
-32.89
-43.10
-48.77
-48.89
-44.36
-37.48
-30.87
-26.52
-25.24
-26.71
-29.79
-32.99
-34.74
-33.72
-29.23
-21.41
-11.47
-1.47
6.27
9.93
8.93
4.18
-2.16
-7.35
-8.95
-5.58
2.61
14.01
26.08
36.22
42.79
45.79
46.73
47.79
50.40
54.14
56.68
54.82
46.31
31.35
12.81
-4.85
-17.67
-23.78
-24.02
-21.10
-18.03
-16.62
-16.96
-17.89
-18.06
-16.92
-14.98
-13.49
-13.62
-15.80
-19.59
-23.93
-27.77
-30.53
-32.23
-33.20
-33.67
-33.51
-32.30
-29.67
-25.66
-20.80
-15.91
-11.60
-7.89
-4.22
0.25
6.00
12.66
18.90
22.94
23.33
19.64
12.76
4.62
-2.54
-6.83
-7.31
-4.07
1.94
9.22
16.15
21.25
23.57
22.94
20.03
16.19
12.92
11.37
11.81
13.64
15.63
16.45
15.22
11.81
6.84
1.48
-2.99
-5.65
-6.12
-4.67
-2.00
0.99
3.52
5.09
5.71
5.91
6.69
9.22
14.30
21.88
30.81
39.03
44.37
45.52
42.69
37.55
32.46
29.30
28.57
29.12
28.87
25.81
18.96
8.84
-2.88
-14.02
-22.74
-27.99
-29.70
-28.60
-25.90
-22.90
-20.62
-19.60
-19.79
-20.64
-21.40
-21.38
-20.21
-17.93
-14.97
-12.01
-9.66
-8.24
-7.57
-6.89
-5.19
-1.62
3.94
10.56
16.49
19.86
19.54
15.76
10.17
5.18
3.00
4.75
10.07
17.35
24.39
29.24
30.75
28.86
24.42
18.73
13.05
8.29
4.84
2.80
2.11
2.67
4.30
6.61
8.95
10.61
11.20
10.85
10.32
10.51
11.96
14.46
17.05
18.60
18.49
17.05
15.34
14.47
14.77
15.36
14.55
10.75
3.58
-5.75
-14.76
-20.83
-22.38
-19.53
-13.98
-8.19
-4.38
-3.84
-6.73
-12.30
-19.32
-26.43
-32.38
-36.20
-37.35
-35.96
-32.82
-29.27
-26.70
-26.06
-27.40
-29.75
-31.46
-30.78
-26.59
-18.86
-8.73
1.84
10.72
16.34
18.14
16.74
13.65
10.64
9.16
9.71
11.65
13.42
13.10
9.27
1.68
-8.52
-19.11
-27.65
-32.45
-33.14
-30.66
-26.73
-23.01
-20.49
-19.29
-18.82
-18.26
-16.91
-14.36
-10.52
-5.53
0.25
6.27
11.74
15.77
17.59
16.83
13.79
9.53
5.63
3.79
5.17
9.90
16.88
24.11
29.40
31.31
29.72
25.90
21.92
19.71
20.22
22.96
26.28
28.12
26.93
22.32
15.12
6.92
-0.78
-7.14
-12.23
-16.70
-21.23
-26.05
-30.85
-34.95
-37.80
-39.26
-39.50
-38.77
-37.09
-34.28
-30.12
-24.73
-18.69
-12.92
-8.32
-5.39
-4.06
-3.74
-3.62
-3.09
-2.02
-0.88
-0.51
-1.64
-4.38
-7.90
-10.61
-10.78
-7.57
-1.73
4.40
7.74
5.92
-1.47
-12.43
-23.33
-30.40
-31.30
-26.07
-16.89
-6.95
0.96
5.53
7.19
7.70
9.23
13.59
21.61
33.01
46.48
59.85
70.51
75.99
74.66
66.46
53.22
38.19
25.08
16.67
13.83
15.27
18.33
20.33
19.72
16.73
12.92
10.20
9.73
11.33
13.55
14.46
12.62
7.78
0.98
-6.02
-11.59
-15.15
-17.58
-20.96
-27.92
-40.49
-59.07
-81.62
-103.64
-119.27
-123.21
-112.85
-89.52
-58.24
-25.80
1.71
20.98
31.95
36.76
37.95
37.09
34.50
30.02
24.05
17.97
13.69
12.76
15.60
21.34
28.23
34.32
38.06
38.66
36.19
31.47
25.76
20.43
16.54
14.57
14.35
15.22
16.47
17.64
18.62
19.56
20.61
21.66
22.37
22.26
21.05
18.84
16.11
13.54
11.63
10.34
9.03
6.77
2.88
-2.49
-8.35
-13.19
-15.86
-16.15
-14.86
-13.23
-12.07
-11.25
-9.87
-7.08
-3.09
0.44
1.01
-3.44
-13.13
-25.92
-37.87
-44.82
-44.18
-36.01
-23.09
-9.74
-0.24
2.65
-1.54
-11.23
-23.55
-35.45
-44.44
-49.05
-48.83
-44.15
-36.04
-25.96
-15.59
-6.56
-0.14
3.04
3.11
0.88
-2.50
-6.00
-9.01
-11.54
-14.07
-17.10
-20.74
-24.33
-26.67
-26.44
-23.08
-17.31
-11.15
-7.21
-7.63
-13.08
-22.39
-33.06
-42.17
-47.44
-47.89
-43.88
-36.73
-28.11
-19.57
-12.22
-6.68
-2.97
-0.59
1.44
4.31
9.19
16.88
27.63
41.08
56.21
71.52
85.26
95.76
101.91
103.42
100.78
94.93
86.65
76.25
63.78
49.57
34.78
21.39
11.44
5.93
4.17
4.09
3.50
1.53
-0.75
-0.94
3.05
11.38
21.71
30.12
32.86
28.08
16.54
0.98
-15.28
-29.76
-41.46
-50.67
-58.13
-64.24
-68.75
-70.88
-69.86
-65.40
-57.94
-48.54
-38.53
-29.06
-20.80
-13.86
-7.95
-2.62
2.54
7.82
13.48
19.77
26.70
33.72
39.39
41.55
38.09
27.99
12.13
-6.64
-24.48
-37.97
-45.48
-47.65
-46.84
-45.80
-46.33
-48.56
-51.10
-51.93
-49.25
-42.19
-30.84
-15.90
1.68
20.98
40.92
60.02
76.28
87.39
91.49
87.98
78.05
64.45
50.61
39.38
32.14
28.69
27.84
28.34
29.49
30.98
32.44
33.07
31.88
28.40
23.33
18.50
15.95
16.64
19.55
21.96
20.68
13.75
1.46
-13.77
-28.54
-39.95
-46.72
-49.32
-49.26
-48.12
-46.71
-44.88
-41.96
-37.35
-31.14
-24.19
-17.74
-12.86
-10.07
-9.22
-9.76
-11.11
-12.76
-14.18
-14.54
-12.75
-7.82
0.39
10.62
20.30
26.42
26.84
21.38
11.95
1.68
-6.58
-11.45
-13.37
-13.86
-14.37
-15.36
-16.11
-15.27
-11.64
-4.70
5.24
17.11
29.31
39.80
46.49
47.76
43.12
33.64
21.81
10.71
2.97
-0.05
1.55
6.58
13.43
20.50
26.39
29.93
30.36
27.82
23.75
20.85
22.21
29.80
42.94
57.78
68.30
68.63
55.72
31.00
0.21
-28.79
-49.06
-57.19
-54.09
-43.99
-32.13
-22.52
-16.74
-14.12
-12.81
-11.11
-8.27
-4.58
-1.04
1.24
1.47
-0.68
-5.01
-10.94
-17.55
-23.73
-28.37
-30.58
-29.90
-26.50
-21.13
-15.05
-9.52
-5.38
-2.56
-0.05
3.67
9.75
18.10
26.99
33.49
34.69
29.03
17.12
1.59
-13.90
-26.03
-32.82
-33.97
-30.51
-24.28
-17.34
-11.63
-8.65
-9.17
-12.95
-18.67
-24.25
-27.57
-27.31
-23.53
-17.61
-11.65
-7.44
-5.62
-5.32
-4.59
-1.32
5.78
16.48
29.17
41.47
51.17
57.01
58.97
58.07
55.81
53.47
51.40
48.72
43.43
33.38
17.37
-3.63
-26.25
-45.59
-57.06
-58.34
-50.44
-37.32
-24.14
-15.18
-12.25
-14.40
-18.89
-22.71
-23.89
-21.94
-17.63
-12.22
-6.75
-1.75
2.62
6.35
9.25
11.04
11.57
11.02
9.98
9.18
9.07
9.43
9.40
7.89
4.36
-0.60
-5.17
-6.97
-4.27
2.95
12.56
20.99
24.73
21.90
13.06
0.88
-11.07
-19.81
-23.90
-23.53
-19.97
-14.88
-9.82
-6.13
-4.79
-6.23
-10.02
-14.74
-18.18
-18.04
-12.70
-1.80
13.55
30.82
46.49
56.62
58.07
49.66
33.16
13.12
-4.55
-14.89
-15.85
-8.93
2.03
13.06
21.89
28.47
33.82
38.30
40.77
39.06
31.76
19.72
6.33
-3.95
-7.92
-5.47
0.07
3.42
-0.04
-12.00
-30.46
-50.51
-66.58
-74.80
-74.47
-68.11
-60.40
-56.53
-60.34
-72.98
-92.04
-111.55
-123.21
-118.57
-92.09
-43.97
18.73
83.45
135.60
162.93
159.29
126.27
72.54
11.20
-43.91
-81.83
-97.11
-90.68
-68.78
-40.25
-13.27
7.17
19.86
26.41
29.27
30.08
29.31
27.00
23.79
21.15
20.66
22.94
27.01
30.75
32.01
29.99
25.80
21.91
20.82
23.66
29.53
35.79
39.31
37.92
31.45
21.82
12.21
5.61
3.63
6.04
11.18
17.03
22.20
26.35
29.90
33.19
35.83
36.58
33.98
27.32
17.28
5.83
-4.53
-11.94
-15.94
-17.48
-18.25
-19.71
-22.39
-25.80
-28.90
-30.71
-30.78
-29.23
-26.47
-22.81
-18.35
-13.10
-7.27
-1.45
3.43
6.37
6.72
4.47
0.21
-5.00
-10.01
-13.74
-15.23
-13.79
-9.12
-1.65
7.24
15.26
19.85
19.05
12.42
1.29
-11.68
-23.49
-31.95
-36.25
-36.99
-35.53
-33.16
-30.57
-27.70
-24.04
-19.19
-13.23
-6.80
-0.79
4.10
7.76
10.75
13.97
18.05
22.93
27.75
31.36
32.90
32.37
30.58
28.74
27.72
27.72
28.29
28.85
29.12
29.22
29.32
29.13
27.83
24.39
18.36
10.47
2.60
-3.02
-4.91
-3.21
0.32
3.06
2.83
-1.18
-8.11
-15.98
-22.57
-26.35
-26.88
-24.70
-21.02
-17.17
-14.19
-12.63
-12.50
-13.36
-14.56
-15.44
-15.59
-14.99
-13.88
-12.66
-11.63
-10.84
-10.09
-9.00
-7.26
-4.85
-2.17
-0.04
0.48
-1.49
-6.22
-13.10
-20.70
-27.18
-30.96
-31.26
-28.34
-23.36
-17.80
-12.94
-9.44
-7.32
-6.12
-5.21
-4.00
-2.08
0.81
4.77
9.74
15.50
21.65
27.60
32.65
36.10
37.44
36.51
33.63
29.57
25.28
21.66
19.27
18.24
18.49
19.92
22.39
25.58
28.55
29.80
27.69
21.35
11.45
0.24
-9.21
-14.40
-14.64
-11.28
-7.07
-4.72
-5.67
-9.69
-15.27
-20.58
-24.34
-26.14
-26.20
-24.98
-22.83
-19.94
-16.47
-12.77
-9.43
-7.18
-6.66
-8.05
-10.98
-14.50
-17.43
-18.77
-18.10
-15.70
-12.29
-8.75
-5.68
-3.38
-1.93
-1.42
-2.04
-3.94
-6.95
-10.44
-13.42
-14.93
-14.52
-12.54
-9.96
-7.98
-7.39
-8.23
-9.80
-11.04
-11.00
-9.28
-6.11
-2.09
2.17
6.36
10.53
14.90
19.50
23.98
27.64
29.73
29.88
28.38
26.16
24.32
23.67
24.34
25.85
27.49
28.78
29.67
30.30
30.65
30.21
28.17
23.97
17.88
11.20
5.75
2.96
3.02
4.62
5.51
3.62
-1.97
-10.60
-20.40
-29.19
-35.27
-37.90
-37.26
-34.07
-29.20
-23.53
-17.91
-13.18
-10.06
-8.98
-9.88
-12.14
-14.84
-17.04
-18.19
-18.24
-17.58
-16.69
-15.75
-14.50
-12.43
-9.27
-5.39
-1.94
-0.45
-2.03
-6.75
-13.34
-19.73
-23.86
-24.55
-21.88
-16.96
-11.31
-6.19
-2.29
0.23
1.49
1.64
0.86
-0.53
-1.87
-2.19
-0.40
4.24
11.71
21.06
30.45
37.75
41.20
40.09
35.03
27.76
20.56
15.40
13.51
15.13
19.77
26.50
34.16
41.30
46.16
46.88
42.15
31.96
18.01
3.36
-8.69
-15.99
-18.48
-18.06
-17.46
-18.79
-22.47
-27.27
-31.15
-32.51
-30.98
-27.45
-23.29
-19.47
-16.11
-12.65
-8.58
-4.08
-0.19
1.67
0.50
-3.67
-9.75
-16.00
-20.85
-23.36
-23.26
-20.76
-16.26
-10.37
-4.10
1.09
3.60
2.32
-2.76
-10.29
-17.98
-23.49
-25.30
-23.17
-18.12
-11.80
-5.87
-1.40
1.24
2.30
2.36
2.09
2.06
2.69
4.26
6.94
10.74
15.45
20.56
25.31
28.88
30.71
30.68
29.31
27.53
26.33
26.35
27.63
29.71
32.09
34.56
37.39
41.09
45.88
51.10
54.97
54.98
48.70
34.97
14.55
-9.83
-34.21
-54.74
-68.77
-75.49
-75.71
-71.16
-63.56
-54.08
-43.34
-31.71
-19.84
-8.78
0.20
6.08
8.39
7.44
4.06
-0.64
-5.65
-10.26
-14.03
-16.73
-18.21
-18.43
-17.43
-15.48
-12.99
-10.44
-8.18
-6.32
-4.71
-3.04
-1.14
0.91
2.62
3.22
1.98
-1.41
-6.51
-12.13
-16.62
-18.43
-16.72
-11.75
-4.80
2.24
7.64
10.38
10.48
8.86
6.84
5.73
6.29
8.72
12.60
17.25
21.91
25.92
28.86
30.45
30.59
29.29
26.75
23.44
20.03
17.24
15.61
15.29
16.03
17.39
18.95
20.41
21.52
21.81
20.49
16.66
9.85
0.52
-9.72
-18.58
-23.95
-24.88
-21.97
-17.10
-12.61
-10.28
-10.72
-13.32
-16.76
-19.72
-21.32
-21.36
-20.14
-18.18
-16.01
-14.04
-12.57
-11.82
-11.87
-12.69
-13.99
-15.25
-15.86
-15.26
-13.22
-10.03
-6.46
-3.51
-1.95
-1.91
-2.70
-3.15
-2.15
0.66
4.59
8.18
9.85
8.65
4.74
-0.76
-6.29
-10.47
-12.48
-12.17
-9.85
-6.13
-1.80
2.25
5.26
6.75
6.87
6.34
6.28
7.74
11.27
16.73
23.39
30.18
36.03
40.05
41.70
40.87
37.98
33.91
29.83
26.72
24.92
23.97
22.84
20.57
16.96
12.82
9.58
8.45
9.62
11.91
13.36
12.30
8.28
2.50
-2.70
-4.94
-2.90
3.12
11.33
19.21
24.45
25.63
22.57
16.18
8.12
0.33
-5.44
-7.91
-6.59
-1.80
5.35
13.26
20.10
24.18
24.21
19.57
10.46
-1.96
-15.63
-28.00
-36.76
-40.46
-39.05
-33.68
-26.06
-17.61
-8.93
-0.03
9.04
17.37
23.10
23.92
18.29
6.28
-10.16
-27.85
-43.51
-54.72
-60.44
-60.93
-57.27
-50.90
-43.19
-35.32
-28.11
-21.97
-16.87
-12.43
-8.14
-3.67
0.95
5.28
8.58
10.12
9.43
6.51
1.82
-3.79
-9.34
-13.96
-17.12
-18.76
-19.27
-19.24
-19.12
-18.90
-18.08
-15.93
-12.09
-7.02
-2.13
0.75
0.26
-3.72
-9.77
-15.44
-18.33
-17.08
-11.99
-4.81
2.02
6.34
7.02
4.22
-0.81
-6.31
-10.61
-12.56
-11.68
-8.16
-2.62
3.98
10.55
15.89
18.99
19.25
16.73
12.31
7.45
3.73
2.19
2.85
4.71
6.16
5.80
3.21
-0.80
-4.56
-6.41
-5.60
-2.74
0.55
2.41
1.74
-1.33
-5.59
-9.46
-11.74
-12.07
-10.94
-9.27
-7.94
-7.41
-7.64
-8.17
-8.41
-7.86
-6.23
-3.46
0.43
5.33
11.08
17.25
23.06
27.44
29.31
28.07
24.02
18.44
13.10
9.60
8.73
10.29
13.48
17.52
22.12
27.45
33.51
39.53
43.75
44.07
39.20
29.75
18.43
9.08
4.99
7.39
14.83
24.05
31.48
34.83
33.71
29.19
22.80
15.61
8.00
0.14
-7.33
-13.12
-15.76
-14.38
-9.46
-2.78
3.30
6.97
7.83
6.95
6.14
6.76
8.90
11.24
11.86
9.39
3.97
-2.64
-7.86
-9.48
-6.74
-0.75
6.05
10.84
11.57
7.59
-0.31
-10.36
-20.52
-29.16
-35.37
-38.95
-40.23
-39.69
-37.76
-34.72
-30.87
-26.60
-22.45
-18.97
-16.47
-14.85
-13.65
-12.38
-10.85
-9.35
-8.50
-8.84
-10.40
-12.57
-14.35
-14.75
-13.23
-9.80
-4.91
0.74
6.34
10.99
13.77
13.94
11.37
6.85
2.07
-0.81
0.02
5.26
14.05
24.29
33.29
38.74
39.43
35.56
28.60
20.75
14.16
10.17
8.97
9.66
10.80
11.19
10.36
8.66
6.87
5.68
5.20
5.08
4.80
4.11
3.18
2.39
1.99
1.90
1.80
1.53
1.31
1.63
2.89
4.88
6.67
6.97
4.78
-0.03
-6.61
-13.58
-19.82
-25.03
-29.82
-35.11
-41.37
-48.04
-53.58
-56.05
-54.08
-47.61
-37.94
-27.18
-17.35
-9.51
-3.55
1.42
6.38
11.68
16.86
21.03
23.40
23.82
22.74
20.87
18.76
16.58
14.32
12.09
10.24
9.13
8.66
8.05
6.13
2.13
-3.69
-9.80
-14.03
-14.70
-11.62
-6.24
-1.00
1.84
1.28
-2.15
-6.83
-11.05
-13.77
-14.99
-15.44
-16.10
-17.74
-20.71
-25.05
-30.58
-36.89
-43.28
-48.68
-51.94
-52.29
-49.81
-45.58
-41.14
-37.73
-35.49
-33.33
-29.50
-22.61
-12.51
-0.60
10.73
19.02
22.76
21.75
16.99
10.07
2.52
-4.62
-10.84
-15.96
-19.82
-22.15
-22.65
-21.13
-17.76
-13.08
-7.80
-2.46
2.83
8.44
14.90
22.42
30.50
37.86
42.92
44.45
42.23
37.23
31.30
26.38
23.78
23.78
25.80
28.94
32.52
36.31
40.19
43.79
46.19
46.23
43.17
37.39
30.61
25.29
23.62
26.37
32.53
39.56
44.53
45.19
40.66
31.45
18.94
4.73
-9.79
-23.52
-35.56
-45.11
-51.50
-54.44
-54.17
-51.41
-47.10
-42.05
-36.72
-31.23
-25.56
-19.84
-14.40
-9.69
-5.99
-3.13
-0.47
2.99
8.03
14.79
22.35
28.87
32.15
30.55
23.75
13.04
0.93
-9.93
-17.64
-21.72
-22.98
-22.81
-22.42
-22.32
-22.34
-22.03
-21.08
-19.63
-18.08
-16.81
-15.85
-14.74
-12.79
-9.42
-4.61
0.95
6.05
9.54
10.88
10.42
9.32
8.97
10.35
13.69
18.57
24.34
30.47
36.65
42.43
46.86
48.48
45.88
38.63
27.91
16.36
7.10
2.25
1.95
4.23
6.06
4.75
-0.79
-9.69
-19.70
-28.29
-33.60
-35.01
-33.03
-28.85
-23.81
-18.92
-14.71
-11.23
-8.29
-5.59
-2.92
-0.17
2.66
5.42
7.82
9.44
9.99
9.64
9.36
10.87
16.06
26.11
40.54
56.86
71.08
79.03
77.90
67.36
49.62
28.58
8.33
-8.16
-19.72
-26.90
-31.19
-34.16
-36.84
-39.55
-42.10
-44.08
-45.15
-45.10
-43.73
-40.87
-36.45
-30.73
-24.43
-18.55
-14.07
-11.32
-9.78
-8.16
-5.02
0.50
8.33
17.52
27.01
36.22
45.23
54.36
63.39
71.15
75.72
75.39
69.67
59.67
47.62
35.62
24.52
13.61
1.16
-14.22
-32.54
-52.05
-69.83
-82.90
-89.32
-88.74
-82.29
-72.03
-60.32
-49.21
-40.14
-33.86
-30.39
-29.22
-29.48
-30.19
-30.47
-29.71
-27.68
-24.51
-20.63
-16.43
-12.08
-7.40
-2.04
4.15
10.67
16.24
19.15
17.94
12.20
2.86
-8.09
-18.38
-26.35
-31.43
-34.04
-35.01
-34.96
-33.90
-31.42
-27.04
-20.66
-12.72
-3.97
4.88
13.46
21.73
29.67
36.97
42.81
46.05
45.74
41.62
34.49
26.03
18.31
13.01
10.91
11.77
14.61
18.15
21.22
22.75
21.83
17.79
10.54
0.93
-9.11
-17.08
-20.84
-19.64
-14.59
-8.32
-3.91
-3.50
-7.56
-14.74
-22.72
-29.26
-33.07
-34.05
-33.10
-31.49
-30.25
-29.83
-30.10
-30.62
-30.94
-30.83
-30.26
-29.30
-27.97
-26.31
-24.50
-22.92
-22.10
-22.34
-23.36
-24.19
-23.47
-20.12
-14.09
-6.59
0.25
4.25
4.20
0.24
-6.27
-13.56
-20.16
-25.42
-29.27
-31.90
-33.24
-32.96
-30.68
-26.32
-20.17
-12.78
-4.54
4.59
14.91
26.58
39.14
51.26
61.05
66.79
67.66
64.18
58.00
51.31
46.07
43.44
43.59
45.96
49.54
53.29
56.35
58.20
58.84
58.74
58.79
59.80
62.03
64.68
65.88
63.17
54.50
39.14
18.20
-5.58
-28.66
-47.70
-60.40
-65.86
-64.38
-57.24
-46.33
-34.00
-22.84
-15.33
-13.18
-16.69
-24.49
-33.89
-41.80
-45.83
-44.95
-39.56
-30.90
-20.38
-9.27
1.25
9.74
14.51
14.01
7.61
-3.64
-17.01
-28.85
-36.04
-37.30
-33.72
-28.28
-24.46
-24.77
-29.76
-38.01
-46.92
-53.90
-57.16
-56.05
-50.70
-41.54
-28.97
-13.47
4.06
22.10
38.57
51.43
59.40
62.41
61.66
59.11
56.69
55.58
55.96
57.25
58.69
59.81
60.56
61.18
61.78
62.10
61.57
59.57
55.78
50.29
43.56
36.17
28.45
20.33
11.22
0.25
-13.33
-29.55
-47.36
-64.59
-78.35
-85.83
-85.05
-75.49
-58.29
-36.00
-12.14
9.37
24.98
32.30
30.79
22.07
9.54
-2.69
-11.07
-13.60
-10.15
-2.06
8.50
19.25
28.13
33.67
35.13
32.76
27.74
21.89
17.04
14.42
14.23
15.73
17.69
18.96
18.82
17.01
13.61
8.83
3.03
-3.27
-9.36
-14.40
-17.70
-18.81
-17.68
-14.58
-9.94
-4.17
2.47
9.83
17.65
25.45
32.47
37.93
41.34
42.71
42.57
41.68
40.63
39.73
38.98
38.22
37.18
35.36
